Archivo de aceleración parte de la Red Nacional de Acelerógrafos (RENAC) Ecuador
          
Evento: 201604162358
Fecha del evento UTM (aammdd):                  2016    4   16
Hora del registro UTM (hhmmss): 23   59 20.00
Estación:                                      AMNT0
Componente:                                        N
Frecuencia de muestreo (Hz):            1.000000e+02
Unidades: cm/s^2
_____________________________________________
10.1586 10.1819 11.3145 10.1791 6.4574 5.0018
8.3941 9.1768 10.9455 9.8641 6.9241 5.6216
3.7976 1.8919 -0.8133 -1.3549 -1.2158 -3.8206
-13.9779 -24.8397 -31.3829 -24.5289 -10.3237 2.2757
7.3908 8.9133 9.0168 8.7103 7.6678 6.5004
8.2646 11.5884 15.0474 15.4686 17.3287 18.9595
18.7245 15.9411 12.7690 10.4286 10.7876 12.5940
11.6653 6.1220 -2.0562 -7.2335 -10.1585 -16.0732
-18.4215 -16.7451 -11.3702 -4.8487 1.2488 2.0949
-0.8892 -8.3493 -14.6032 -16.5723 -12.1034 -6.1866
-1.3255 1.0008 -0.0374 -3.3377 -4.9341 -2.0644
3.3563 14.5404 26.3698 33.9002 29.6052 19.1712
4.9214 -8.7205 -17.9500 -22.9215 -22.1406 -15.5115
-9.3023 -8.4858 -10.5722 -8.8427 -4.7704 -2.1170
-1.7335 -1.9462 -2.7030 -3.7225 -1.6626 2.3325
3.9872 2.2562 -4.2198 -9.8273 -10.6073 -8.2710
-4.6259 -2.1590 -0.9681 -0.9675 0.2310 0.1051
0.0222 -2.2157 -6.5904 -10.5539 -13.7787 -15.7095
-15.0599 -12.1344 -7.3402 -2.5763 2.2341 6.5653
8.9248 8.6397 5.6221 0.6198 -3.7998 -7.4106
-13.0779 -17.1835 -18.5726 -17.2381 -12.7372 -5.3990
3.1229 9.0578 12.9806 12.3512 9.0240 7.5450
10.6947 17.9750 26.2383 31.6178 28.3166 21.0852
12.8025 6.9699 3.0272 -0.3440 -5.0789 -9.3375
-12.8936 -11.8071 -5.9063 2.7900 7.0453 6.9439
6.9469 6.6606 7.9664 10.2049 12.0521 12.2992
9.7378 4.6335 -3.5845 -11.8201 -16.2135 -12.7926
-4.0688 2.3118 3.5132 -1.5718 -8.8107 -14.4470
-14.4255 -14.9092 -17.4238 -20.1822 -17.5222 -12.5736
-7.9587 -8.1699 -13.0090 -17.5566 -20.2941 -16.9030
-6.8969 3.4302 13.2399 21.4622 29.5336 30.8458
28.0766 24.8448 21.1767 14.5430 6.5784 -0.5182
-9.7444 -13.5751 -15.7031 -13.9776 -7.3411 0.5100
8.0067 13.7926 16.9571 16.0793 13.4649 10.5098
6.8622 7.8697 7.9020 3.9934 -0.8224 -5.3944
-11.6830 -14.1870 -13.0296 -12.8787 -11.0606 -11.6682
-16.3121 -17.2924 -15.3107 -9.8157 -2.2801 2.9739
3.0463 -2.9885 -8.6272 -11.2362 -11.6037 -9.7611
-8.6990 -12.2168 -15.7434 -19.8779 -20.0771 -16.3565
-10.4089 -2.5656 -0.1690 -1.8444 -5.1580 -3.4264
2.0460 8.8408 14.1880 13.6838 8.9350 8.0859
9.3546 11.6378 14.1240 17.2816 18.1345 12.6359
5.6148 -0.4514 -2.7120 -1.0974 2.3640 6.8681
9.9843 11.3433 8.9059 1.4090 -7.6470 -13.9591
-16.4571 -13.8155 -5.2757 7.1659 18.4232 24.9637
22.7509 14.2857 4.7189 -1.8696 -3.6784 -3.2479
0.8191 5.7311 9.5612 12.0212 12.5830 9.7076
5.7610 2.5678 2.4127 6.5406 12.9601 20.8421
26.7664 27.7172 27.1276 24.3228 17.2075 11.1268
5.9755 1.4065 -4.3354 -12.4964 -21.5868 -27.5634
-25.9911 -20.5649 -13.3720 -3.7920 6.3692 12.2815
12.9187 8.7009 6.7472 8.8240 10.1504 10.1920
9.4498 10.4838 13.3481 15.0839 13.9817 8.0483
3.7985 1.9546 -0.0968 -3.1267 -4.7455 -4.3756
-4.5476 -6.3341 -7.9356 -10.9342 -17.3899 -24.6035
-30.9011 -32.8955 -29.9006 -23.9527 -17.9388 -11.3581
-3.5073 4.3068 9.6132 11.1342 9.9665 7.2214
3.5413 -0.6068 -4.2646 -6.2198 -6.7623 -6.9802
-9.4440 -13.7352 -17.1030 -17.1936 -15.1071 -14.9258
-17.5813 -20.1505 -19.2706 -14.8525 -6.2437 3.7063
9.7658 9.6602 2.8931 -4.4403 -10.5394 -13.1761
-13.2986 -13.2796 -13.6773 -13.0364 -9.5214 -5.3995
-1.6539 1.0450 2.6062 4.1615 4.6066 4.6953
5.4722 5.4725 5.0326 4.8060 5.1651 5.4104
6.6686 9.6876 12.4049 13.9736 11.4720 2.1333
-9.0230 -15.7723 -13.2441 -6.5962 0.3836 7.2931
12.6695 18.4690 24.6220 29.7719 35.0717 35.6781
31.3445 25.9934 22.3461 19.7962 15.3618 11.7492
10.6455 9.4712 5.6067 0.0332 -3.9767 -5.2702
-5.6166 -5.1501 -3.4743 -0.5208 0.5911 -2.3709
-9.9264 -18.2872 -26.1149 -28.5975 -24.6814 -18.5482
-13.2994 -8.2893 -2.1589 2.9469 2.9804 1.6718
2.0067 4.9983 6.9734 6.8108 4.8152 2.2457
1.6597 3.7232 7.5235 10.9649 13.0061 12.5635
11.6302 8.6947 4.9636 2.1594 1.2723 2.3087
4.1438 5.8226 6.7923 6.5271 5.2532 2.9674
-0.7049 -4.2641 -8.2013 -14.0032 -19.7215 -21.4084
-15.9662 -7.0560 0.9518 5.0731 4.4265 2.6360
-0.2174 -5.1771 -13.3907 -21.0974 -25.3272 -28.2132
-29.3710 -31.6849 -32.2488 -27.4348 -20.3253 -14.3490
-10.1354 -6.2000 -4.4868 -5.0752 -3.4552 1.1654
6.7937 10.0946 10.1272 10.9129 12.2673 10.7240
7.6102 5.2836 3.8655 3.3975 2.8239 1.8083
3.4753 4.7951 7.7879 7.9517 5.3032 2.6272
1.2263 0.4562 1.0878 1.5406 -0.0802 -5.1540
-12.2941 -17.1111 -16.4820 -9.7689 -3.6937 2.5206
7.5576 5.9998 0.8125 -1.9730 -0.3183 4.3874
8.3457 8.6719 8.1870 8.2437 6.8702 4.4417
1.1691 -0.0353 -1.8451 -2.6519 -2.8016 -5.0174
-6.9343 -7.7767 -6.7008 -5.8737 -5.6007 -3.9318
-1.2628 1.0566 0.1245 -2.5460 -5.5051 -8.3386
-12.7507 -16.6499 -18.9016 -20.2642 -21.7125 -22.3407
-21.6929 -20.9489 -19.9441 -18.1151 -15.5755 -13.2211
-15.2062 -17.4507 -21.7651 -28.1966 -32.6395 -37.6189
-42.4172 -46.8915 -49.9456 -51.7170 -50.2144 -46.6589
-41.4487 -35.6583 -31.2242 -33.2412 -34.1865 -35.9350
-37.8911 -39.9214 -42.8050 -44.4147 -42.6424 -39.3677
-34.4991 -31.8654 -30.8012 -40.4775 -53.0268 -58.0599
-53.6403 -43.0476 -36.6203 -29.7892 -25.7331 -16.8235
-5.8917 6.4657 15.9996 21.5025 24.4895 31.1987
38.1278 44.0316 46.9170 47.0480 46.3646 43.4695
37.8665 30.8070 25.4194 23.4962 26.3680 30.2322
37.2057 39.8479 48.0569 58.5856 68.8011 83.9468
98.6667 112.1206 118.3352 118.6152 109.2249 89.9139
71.2849 59.1196 49.6370 37.5590 21.1506 -0.1732
-20.0723 -33.4496 -34.9187 -44.0459 -51.7438 -44.0778
-34.4477 -22.5145 -14.4790 -12.6499 -16.1988 -19.5980
-13.2838 -1.3045 7.4305 20.0281 32.6251 47.6790
62.8232 78.2791 91.9055 102.2414 111.0886 117.9836
123.8908 126.6772 125.7090 121.3940 114.7690 109.9535
105.0833 99.5769 88.0763 74.3349 56.3385 34.1161
6.8954 -22.1866 -47.6386 -57.1067 -72.3272 -73.2623
-54.1897 -68.7304 -66.4310 -61.7062 -64.6797 -73.1914
-84.7197 -93.3340 -100.2462 -98.5448 -86.4178 -69.5614
-50.1074 -24.9004 -5.0843 17.0879 32.4931 40.7763
44.6562 57.3039 67.1365 68.7335 62.1590 56.9533
38.6492 19.8626 8.1098 -6.7849 -16.4319 -28.7637
-35.0432 -45.8220 -57.2312 -71.9523 -83.9579 -100.1585
-118.6506 -139.4334 -154.2432 -163.8828 -173.7217 -177.3149
-178.8595 -174.0693 -161.5085 -149.3843 -134.2661 -122.1690
-117.7907 -118.4575 -120.0642 -115.4538 -112.3367 -102.8252
-87.6686 -67.1296 -37.3077 -7.2406 24.2523 54.3037
77.0912 92.2972 102.2348 102.9689 99.2417 89.4767
71.3201 50.0784 25.4507 0.5698 -18.6488 -30.4134
-33.1262 -26.1708 -10.1164 12.2300 34.3935 52.5488
65.6036 72.5345 76.1470 77.5413 75.7744 68.6980
58.0861 45.3599 32.2080 19.8814 4.1102 -7.9410
-1.0493 5.8165 15.1920 21.3918 31.2754 37.8391
38.3635 16.2748 7.7158 4.5208 6.0877 14.6398
5.0075 -7.0208 -18.9081 -19.2964 -22.5276 -25.7066
-24.7290 -19.3260 -17.8080 -22.6356 -14.4764 -7.9293
3.9092 25.1476 56.1842 94.3735 96.2409 100.9939
134.2851 168.6922 134.6477 110.0034 86.9357 68.5953
63.6081 52.7276 46.3739 26.4981 6.2647 -7.7040
-12.8073 -6.1603 7.7567 22.8958 48.1558 75.2646
96.0580 111.3808 124.0260 130.4362 130.1067 123.6546
111.8134 100.6671 95.8241 97.9347 106.8159 122.2024
140.1731 159.2584 180.4015 198.8703 213.6986 224.8881
220.9439 199.5857 150.2148 105.5124 52.8370 -25.6826
-116.0459 -153.7220 -158.7348 -182.5500 -226.4135 -213.1201
-160.1916 -148.9523 -131.8542 -125.3532 -123.6123 -126.2527
-132.4797 -140.6974 -145.8606 -152.0915 -161.4869 -163.4234
-160.4327 -142.5784 -112.6962 -97.3236 -75.8951 -49.7742
-21.6061 -5.4125 -3.6122 0.2059 6.4926 5.7727
-1.0336 -4.2105 2.4178 15.0067 25.1030 34.4522
47.0076 58.4710 66.9196 70.2654 66.3729 42.6654
3.8166 -38.2511 -78.5232 -115.1973 -140.7066 -155.5506
-152.6088 -129.6451 -87.9681 -39.7712 1.5476 46.5106
83.2788 104.0365 134.7799 149.0590 139.7843 122.9565
89.8796 56.4068 22.0446 -17.9496 -54.9851 -83.1638
-102.9343 -114.8121 -120.2087 -116.8131 -105.1747 -83.9707
-55.5066 -27.8486 -2.1191 25.8243 52.5347 81.7752
108.0907 128.5241 140.6704 142.5598 137.4244 121.2972
73.2267 24.2839 -11.6862 -39.9651 -56.2440 -61.0487
-49.2555 -39.7542 -41.2387 -49.4537 -62.3742 -75.1251
-90.8199 -108.6419 -124.1038 -135.6852 -143.5195 -147.0370
-146.4323 -145.0616 -140.3170 -139.9519 -144.2783 -151.5173
-158.5756 -160.5585 -149.3678 -142.3470 -136.3825 -135.9755
-126.4715 -108.3990 -105.4268 -93.4115 -76.9138 -53.5343
-32.2917 -9.8105 10.0053 31.3873 55.5482 80.3243
99.8158 128.0976 148.8264 179.5791 186.0593 202.1822
212.2167 216.7181 200.8742 131.7892 95.2721 46.5429
22.8086 36.8029 64.8787 84.1475 101.5045 105.5714
94.6794 88.1378 87.9812 88.8673 92.6552 81.6247
75.2668 71.3998 70.1067 61.2767 47.4254 42.2049
33.8701 40.7214 36.0639 40.7781 59.6181 71.4523
76.3780 85.6922 92.1304 91.7339 83.6275 60.2888
34.0306 14.2637 -1.4577 -13.7316 -33.1162 -47.2894
-53.8836 -71.8230 -99.8411 -128.0913 -144.9191 -149.3771
-129.7170 -102.5515 -84.2694 -60.3885 -34.2507 -12.8578
4.9895 19.5960 40.2080 73.4343 134.1675 189.4559
211.2636 215.8749 181.7990 140.2412 95.0039 56.9842
20.6674 -51.9593 -108.7925 -162.7955 -162.7891 -171.9972
-164.0552 -112.9270 -62.8501 -47.6510 -25.9491 14.3028
28.1408 43.2581 49.7790 57.3764 50.1531 39.7194
28.8546 24.6628 21.9720 25.9867 19.6252 7.5350
-12.5749 -26.4518 -50.5159 -87.2262 -128.3009 -159.1362
-175.9815 -188.2753 -207.0677 -171.4512 -127.1465 -99.6220
-57.2981 -25.6879 9.5659 48.1333 77.7590 92.3782
126.9821 152.0171 164.9726 167.1214 133.0552 95.0711
35.0242 -13.9463 -50.2825 -110.2551 -176.2399 -182.3052
-127.1770 -60.8673 -15.8641 67.5824 180.6142 206.2298
243.8922 264.3009 274.7005 251.6092 248.6281 270.0970
287.0120 269.5723 256.0804 251.3014 249.9988 247.1961
238.6959 217.6838 182.3394 153.1705 121.0386 83.1184
38.7085 -10.5831 -57.1893 -79.6286 -154.9168 -229.7439
-290.8770 -244.0526 -285.5353 -270.2885 -225.0102 -205.0128
-177.5057 -156.8735 -139.2347 -146.3506 -144.5628 -147.3843
-151.9977 -169.2105 -183.8643 -188.3474 -159.6051 -109.0634
-70.8228 -34.9752 -15.2331 -27.7320 -34.3706 -49.4616
-49.1304 -36.4096 -0.7787 53.3345 189.4238 348.7339
439.0450 501.6169 514.2625 489.3186 436.3020 359.4834
277.1898 232.8263 195.2419 97.4870 -9.7022 -153.0001
-174.3040 -150.2942 -72.5645 -51.9859 -67.0559 -86.9284
-99.3160 -112.9826 -182.2010 -251.1536 -302.5624 -259.3512
-177.8064 -94.2214 -61.6276 -42.6051 -4.5244 0.6342
20.9979 35.5516 -10.2931 -30.6954 -39.4490 -109.1505
-156.9917 -168.0517 -174.4510 -192.2488 -200.7246 -207.5547
-198.8397 -173.3183 -132.7855 -133.3787 -94.9411 -5.4927
28.0121 54.6519 63.3217 58.3164 30.7143 5.3800
-18.9291 -28.0297 -38.5110 -33.9254 -20.5789 7.5062
51.9322 93.8031 109.5308 186.2947 248.7421 283.3026
322.7078 352.9916 340.3186 268.8134 224.1548 175.5361
125.7259 61.5846 14.7460 -51.3242 -147.3460 -205.7961
-140.5019 -133.3487 -188.1193 -133.8474 -77.7707 -17.5186
9.2781 23.8505 19.4466 0.6560 -41.7622 -93.6130
-137.4241 -165.4064 -187.0228 -190.4869 -142.2079 -91.9475
-54.2832 -25.8553 11.6177 51.4272 99.4223 111.8594
82.9870 56.5605 33.4933 -15.6709 -64.9942 -116.7165
-154.9483 -181.3939 -199.8227 -207.3546 -202.7078 -181.6302
-151.5011 -116.7391 -83.1762 -55.6202 -37.0111 -25.8222
-23.4555 -31.6241 -43.9284 -62.8381 -71.4783 -83.6149
-92.9985 -93.3443 -79.2601 -64.8184 -61.3823 -54.2861
-36.4912 -16.1423 17.4215 54.6239 108.9621 116.8652
191.6477 290.4951 308.0404 321.6017 280.6073 220.7071
151.0732 93.2999 34.7486 -15.3214 -57.7928 -83.2496
-89.0337 -71.6987 -56.9995 -36.8120 -14.8540 9.4761
41.2779 75.9123 104.5581 125.8574 134.3528 134.3950
120.6837 94.3350 53.9319 15.6811 -22.0342 -48.3060
-70.9185 -100.0159 -84.8705 -75.9410 -59.3033 -58.9515
-63.0851 -74.9124 -76.5740 -75.8846 -56.3554 -25.8131
-19.6063 -18.2455 -11.6899 -16.6494 -18.3614 -43.6320
-53.8409 -69.0457 -55.5650 -74.7562 -3.7887 59.4260
29.6343 62.5663 83.7100 117.0738 142.5382 122.6008
90.1138 91.6405 66.5213 57.9411 51.9619 39.6726
6.6042 -6.7215 -16.8561 -9.1510 9.6537 34.6803
57.5588 95.5010 133.9447 165.1738 178.6618 166.0256
109.8936 56.8826 19.1103 -39.7363 -85.7246 -86.0951
-47.6188 -1.6218 12.9581 18.7350 24.5383 28.9094
31.8844 34.6416 33.8544 42.1455 61.3246 91.0674
110.1512 97.9157 90.8686 70.7396 57.1979 34.0683
13.7202 -10.7297 -28.9207 -52.0832 -75.4382 -89.2491
-98.9867 -96.3614 -93.0134 -76.9749 -56.0745 -44.5881
-37.8636 -25.3652 -14.4274 5.8072 36.7252 61.1362
76.5378 79.0620 73.6684 64.9410 55.1301 42.9733
37.2921 32.5644 25.9711 12.7543 -7.6773 -22.2473
-42.6025 -80.1754 -116.0876 -135.3093 -143.0986 -131.8349
-78.3578 8.1949 68.6781 81.9262 64.7547 69.7948
83.6810 76.9613 105.9453 102.7289 95.5083 87.3476
46.5996 23.4338 17.1628 -30.8954 -75.1032 -90.8653
-96.3956 -91.1384 -81.9207 -68.8747 -61.9003 -57.3349
-50.4632 -30.1583 -10.3549 6.8190 21.8998 37.8933
48.5792 60.4871 70.3851 67.0478 32.4994 18.0582
-14.1636 -61.7130 -96.1072 -119.2767 -109.1402 -62.9631
-30.4948 -2.2781 39.3053 61.5129 66.3809 61.0274
42.8400 26.5698 13.2580 -10.6709 -26.0072 -34.2639
-48.0362 -57.3746 -54.1784 -52.6453 -45.8351 -35.3813
-0.6609 20.2465 37.4617 62.6871 89.1653 86.9123
75.1297 47.9853 23.8747 10.3472 -20.9842 -58.9237
-77.4182 -88.6665 -99.8717 -104.7774 -82.4920 -45.2275
-9.9812 21.2621 26.4644 81.6354 100.3822 101.8938
102.1198 87.5561 57.5867 29.2502 8.4774 -8.1842
-23.0357 -34.1461 -37.1736 -29.4543 -20.3657 -13.7963
-15.3526 -8.2693 -9.2602 -17.0492 -21.3826 -28.8358
-35.0637 -45.7333 -47.6266 -47.3143 -44.1378 -36.5298
-22.5717 -6.5395 16.8073 39.6343 59.0666 72.6243
82.0957 82.0879 70.1839 44.6061 18.9969 -8.5313
-31.1175 -53.0354 -70.1634 -83.6683 -91.1852 -92.5879
-84.2518 -65.3213 -31.1428 1.1897 32.6789 63.4738
85.5308 99.2849 107.2969 102.9243 89.2879 66.1109
41.8030 19.6754 0.0527 -16.0693 -31.2935 -41.3306
-44.5697 -42.1972 -32.2822 -21.7065 -9.5521 5.3818
20.1593 35.6095 48.3682 55.5393 51.5616 37.5456
13.3153 -12.6548 -29.8105 -43.1259 -48.1804 -44.5887
-34.1907 -26.0646 -19.1530 -13.4100 -19.0670 -24.4157
-29.1528 -30.7679 -34.3014 -41.5863 -52.5845 -61.3131
-73.9825 -88.9390 -103.4622 -119.6838 -133.1595 -146.5063
-154.6685 -159.7019 -159.3420 -159.7396 -141.9083 -120.0499
-95.6364 -60.1690 -54.8689 -22.3134 5.6134 2.4857
4.3847 -0.1505 11.8904 28.7152 37.3482 24.8966
17.6193 6.4488 -9.9077 -23.5067 -36.4900 -46.6605
-52.0885 -45.8953 -30.4102 -10.8992 0.4248 8.4263
15.7386 27.7849 31.2334 38.4753 65.4933 76.4797
74.2367 76.3693 82.5806 98.7255 99.6823 94.8200
85.3145 70.8836 58.4519 45.0994 36.1267 27.1956
32.6677 32.1892 29.7745 26.4446 20.6723 16.5749
6.3606 -0.5021 -12.9489 -29.5975 -50.9913 -75.9545
-105.5099 -124.0989 -140.5055 -156.5355 -169.8084 -178.4456
-172.6117 -157.0129 -121.2021 -86.3640 -55.6526 -19.1980
9.9221 31.7588 50.9066 69.8709 61.3496 42.9425
17.3508 -3.6911 -10.9175 -14.1601 -18.4410 -22.7568
-24.1487 -21.3357 -11.9940 -11.6721 -11.0659 -3.5901
4.7589 15.2743 19.9100 25.1537 31.6525 33.1856
31.6716 27.9181 22.3208 17.5961 14.6847 15.2981
25.2424 31.5940 34.1979 34.0232 30.7519 22.0175
7.2834 -8.1848 -25.4537 -41.7876 -54.1918 -63.3510
-70.0433 -74.2535 -77.6853 -79.5407 -79.4203 -73.1091
-58.1300 -38.0363 -19.2105 -6.7043 4.3792 13.5269
19.0986 21.1244 18.0890 13.9192 11.2525 1.7201
-9.0267 -16.0934 -18.1129 -16.2316 -13.7991 -11.1666
-8.6731 -5.2120 0.5425 8.6631 20.4068 37.9159
55.8154 68.9510 78.3186 84.6168 86.5102 82.7335
74.1784 65.7624 62.1272 63.4083 69.8942 77.7203
83.2925 84.2750 82.1852 80.1727 74.5211 68.3065
61.2431 54.1166 46.4688 39.6643 36.1444 33.4796
27.9933 19.9644 10.2534 2.0009 -5.3458 -11.9020
-15.9192 -18.1169 -15.6126 -8.7535 1.2502 10.1719
25.9086 39.3755 53.6332 62.3522 67.3735 68.7366
71.6649 69.9985 70.5337 59.7742 73.9848 96.8779
102.9061 99.6212 89.6075 84.2975 78.1746 71.8857
64.4120 58.4128 47.3012 34.0434 25.0007 21.0469
3.5501 -6.4879 -7.3560 -1.2132 5.7823 19.8279
17.9846 7.0622 -7.8327 -18.8439 -31.5667 -46.8536
-63.8564 -80.2250 -93.2758 -101.5225 -108.7959 -119.4749
-132.0595 -144.9833 -154.7049 -157.4865 -150.4837 -135.6419
-112.4544 -90.0733 -72.1295 -61.2637 -54.9224 -50.4409
-43.8343 -32.7013 -16.4106 2.9490 19.5043 30.8163
26.7044 11.8604 1.5662 -4.6225 -10.3571 -10.1942
-2.6320 -0.3009 -2.3406 -8.2855 -14.7209 -18.8196
-21.0321 -21.8091 -19.2161 -15.5899 -14.7427 -17.2286
-20.9422 -26.3573 -31.3771 -35.6064 -41.1180 -47.4512
-52.3240 -56.3632 -58.8464 -61.4380 -62.9596 -62.4005
-60.0416 -55.3241 -48.1346 -39.3816 -30.9780 -26.1410
-25.7720 -26.6883 -29.7448 -32.0412 -32.4655 -31.7163
-30.8018 -31.7516 -36.1921 -41.7825 -48.7556 -56.1980
-61.6951 -65.1055 -66.7046 -66.5927 -67.6855 -69.7026
-73.8238 -77.2735 -79.2419 -74.0151 -64.9266 -54.0081
-37.1779 -20.6747 -8.1405 10.8075 37.4402 52.8167
61.7685 65.2402 62.5355 56.6766 51.9670 45.7551
39.0800 32.9628 28.6970 22.9775 15.2833 3.2082
-9.8559 -22.7226 -33.1656 -42.2104 -47.4342 -50.1784
-48.3255 -46.4153 -42.5610 -37.2483 -25.0649 -11.5775
-4.6925 8.0708 19.4657 32.7495 43.7377 53.2043
59.0831 62.8718 63.0091 61.2141 55.4455 44.7919
35.6550 31.7036 27.7209 24.6007 23.7387 25.6697
28.9422 33.5103 38.3808 43.0699 46.1236 46.9410
45.4529 41.9034 38.7139 35.7199 31.5051 27.0896
22.3791 17.8568 12.7417 7.8474 3.3058 0.3070
0.0231 2.3071 5.8641 9.4879 11.6820 12.2064
11.0782 9.0908 5.8050 2.5108 -1.5305 -4.0318
-5.7538 -6.0172 -6.0483 -5.7556 -5.8974 -5.4853
-5.6524 -6.3702 -7.3128 -4.9250 0.8820 9.8073
15.3388 21.7134 22.9707 20.3683 13.5119 7.8256
1.0751 -1.9554 -5.6241 -2.2273 -6.1407 -11.7383
-5.5937 -0.9459 6.8655 17.9436 27.8809 32.5277
37.6224 38.2678 33.5171 26.2238 18.6448 12.3405
0.7250 -7.7547 -5.1565 -30.3237 -36.6653 -43.0218
-47.1632 -52.3686 -50.6928 -41.4634 -33.7118 -23.5705
-14.0478 -5.3361 0.5823 3.3147 2.6814 -3.0550
-10.0771 -18.8549 -27.7023 -35.6621 -45.1716 -50.2840
-58.0363 -63.7494 -69.6195 -72.2744 -71.2744 -62.6539
-47.1911 -30.1276 -11.0363 7.4956 25.1055 42.4878
57.6525 68.7835 74.5428 76.2309 71.1381 60.2027
47.4877 35.5403 26.4252 17.3535 10.8227 7.5870
4.1250 1.8376 -0.6948 -4.1625 -4.2542 -0.6377
7.2110 18.2409 29.7800 40.7513 48.8481 51.5896
49.9162 44.7100 33.9671 20.3602 5.9392 -7.1092
-18.7066 -28.8472 -36.9691 -41.0783 -38.7185 -26.8522
-11.0736 8.8336 23.8143 36.5984 47.4423 52.3046
52.6914 50.7559 48.6486 45.7110 39.9149 35.2961
26.9087 17.6059 9.2759 2.0632 -3.3820 -6.4820
-7.6735 -6.5103 -2.6555 0.3747 -0.2254 -2.3906
-3.8624 -1.1237 7.3035 15.4437 24.4901 33.5967
38.4524 39.4523 37.8326 30.1564 16.7399 6.5453
-3.4762 -13.6495 -18.3211 -20.0759 -12.8789 -2.5050
4.7533 10.0220 12.5317 14.0980 13.2218 12.4916
11.6872 12.1980 13.5446 13.5476 14.7391 16.0791
17.2018 14.0035 9.7009 0.7481 0.7038 -7.9262
-24.1348 -32.3022 -37.1775 -39.2120 -39.0364 -35.6133
-31.0727 -26.6570 -21.7428 -23.5679 -26.4726 -28.6070
-19.8498 -12.5534 -13.6013 -15.3764 -24.4354 -34.3962
-43.0675 -50.1982 -55.6992 -57.5575 -56.0429 -54.0343
-55.1655 -54.8918 -58.7264 -61.4881 -58.7820 -47.6429
-38.2629 -27.8329 -18.9462 -9.7360 -2.4080 4.8810
2.5080 0.0803 1.4311 1.5621 1.6713 -0.4420
-2.5861 -6.3628 -8.1411 -12.7814 -22.4906 -26.3795
-29.1864 -30.2820 -25.5470 -23.5445 -22.7371 -22.4396
-21.4711 -16.8311 -13.0170 -15.8397 -15.8864 -16.2497
-15.8587 -13.0907 -11.9411 -11.6056 -12.7449 -16.6785
-23.3143 -30.6532 -36.8201 -40.4309 -40.4876 -37.2106
-29.3470 -20.9356 -14.0713 -8.1636 -2.3499 0.0087
-0.9427 -3.6836 -6.0219 -8.1005 -9.9757 -9.6508
-9.2284 -7.6844 -4.9152 -2.4661 -0.1244 1.5073
4.4346 4.9973 4.1003 2.9830 0.9011 0.2596
0.9430 2.7836 5.2640 7.4232 9.7799 10.5264
10.1782 9.3500 6.6945 5.1059 4.1464 3.2509
3.8721 4.7170 5.8997 7.3245 8.7655 10.7137
13.8547 17.3137 21.2810 25.3794 29.3754 32.7834
36.6907 39.0061 41.6770 43.9502 46.0052 48.3958
49.5107 50.8461 52.5080 54.3410 56.1399 57.4276
57.4454 55.7331 52.8043 48.7922 45.9506 42.8027
41.0279 38.3553 35.2309 31.7354 27.0876 23.6091
18.0323 16.0611 12.3985 12.6217 8.1900 3.9233
1.6996 -0.7055 4.7063 6.8555 10.2616 20.4059
29.4773 37.7883 43.4571 46.6668 44.5864 36.5801
26.1311 16.5869 10.7401 5.4041 3.2293 1.5309
0.5032 -2.1049 -6.8046 -10.6112 -12.3002 -9.9163
-2.6194 8.0535 18.8758 29.5532 40.3565 48.6458
54.2928 56.3111 54.2234 50.3502 47.7813 48.3727
50.5418 50.6106 46.2724 39.6236 33.9041 31.7102
33.6965 39.0077 44.8087 49.2582 50.8214 48.7628
43.6274 36.3254 28.7795 22.1509 16.7398 12.3461
7.1715 0.5806 -8.2817 -17.6496 -25.5524 -31.7166
-35.9040 -38.8901 -40.1948 -39.7829 -35.6167 -28.3847
-20.9209 -16.5257 -14.9495 -14.5717 -12.8848 -9.8579
-4.4914 2.0837 9.9551 18.2737 27.6881 35.3302
39.4822 38.1380 30.7225 22.0932 16.7889 13.5375
13.0315 15.9495 19.4787 21.4454 20.7912 18.9827
15.4712 12.1504 12.0020 16.8272 22.1855 25.6864
28.3739 29.4646 26.7442 24.6427 25.3503 27.3975
30.8637 34.9650 39.0256 36.5645 32.8249 28.3153
22.4627 19.3800 17.5365 16.8992 14.9133 11.5442
6.1364 -0.0852 -7.2786 -12.3726 -14.6841 -15.8947
-17.1139 -19.0915 -20.2027 -19.0803 -14.2934 -7.7364
-2.9193 4.3260 12.9028 19.9593 23.9143 23.5615
18.6012 11.2647 4.4536 -1.1974 -7.6027 -14.4911
-21.5910 -27.3651 -33.4204 -37.7327 -39.8128 -37.6500
-33.1950 -25.1562 -17.6792 -11.8746 -5.5836 -0.5810
3.6446 6.6039 8.4749 9.0367 8.9891 8.5268
7.3766 4.7806 1.2278 -3.5165 -8.9337 -15.2337
-21.4342 -27.5477 -32.7926 -36.2383 -37.4217 -36.3780
-33.6022 -30.1302 -26.9829 -24.7523 -23.6824 -23.9295
-26.1825 -28.9816 -31.8090 -34.4310 -36.0618 -36.5150
-33.8541 -29.6128 -25.0335 -20.2249 -14.4056 -10.7982
-7.9441 -6.3803 -5.0207 -2.4190 0.0555 2.3827
4.7367 6.3341 8.2572 9.7140 11.4281 13.2282
14.4903 15.9977 17.0356 17.0634 15.9069 13.1636
10.0470 6.5247 2.4747 -1.6333 -5.3835 -8.6563
-10.6148 -10.9989 -9.1650 -7.2491 -4.5740 -3.7189
-1.7474 -1.3153 -2.6801 -4.2312 -4.9668 -4.9976
-3.8260 -1.9366 -0.9192 -0.5496 -0.9280 -2.2456
-4.7659 -6.7561 -9.6744 -12.2517 -15.3712 -18.0847
-20.8406 -23.5652 -26.2726 -28.3853 -30.0091 -30.9985
-31.3745 -31.4499 -31.6222 -31.2966 -31.1476 -30.2846
-28.6249 -25.7672 -21.4957 -15.8562 -9.5954 -3.3280
1.6955 5.0217 6.7309 7.3474 7.4523 8.3651
10.0426 12.3970 14.4928 16.4265 17.5167 18.6183
18.9058 19.3083 18.1744 16.0201 13.8525 8.6336
3.4421 -1.8122 -8.2030 -13.2668 -16.6438 -19.9482
-21.8150 -21.6092 -21.8289 -19.8529 -20.7946 -19.5225
-23.9187 -27.1221 -24.7777 -27.4854 -21.0079 -17.5852
-10.6929 -9.0593 -7.9107 -7.1319 -6.7883 -6.3737
-3.6042 -2.8073 2.2451 11.3291 14.9009 24.9691
30.8317 36.9488 41.3112 45.1756 46.6529 45.4475
41.8081 37.2086 31.5998 25.3611 18.6673 11.7638
4.2563 -2.1605 -10.3161 -16.6038 -20.2163 -22.4548
-21.4854 -17.9157 -16.7727 -13.8047 -12.0936 -11.1954
-12.7164 -14.3861 -14.2437 -13.2887 -12.5061 -10.7558
-7.5367 -4.5734 -1.9373 0.6162 4.4336 7.3142
10.1667 12.0968 13.0560 13.9371 15.2007 14.1745
12.9242 10.6482 9.5406 7.9442 7.5103 5.9329
6.7252 6.4657 7.3265 8.9239 9.7331 10.2931
10.1389 10.4376 9.4829 9.0979 8.5974 7.8159
6.5477 5.2645 3.8621 2.9427 1.8511 1.3584
1.8619 4.1686 8.0841 13.2481 17.6117 21.1521
23.5134 24.5248 24.4352 23.7620 23.1000 22.2042
21.7619 21.5890 20.3851 19.0804 16.9668 14.9776
12.5816 9.8193 7.1493 5.2071 3.8457 3.4803
4.2636 5.9155 7.5762 8.5719 10.4245 13.2689
16.1376 19.2370 21.2474 23.0598 24.3777 24.7920
23.9933 22.3471 21.1025 20.9869 21.8206 23.7097
26.5188 31.2818 37.9007 45.2507 52.3756 58.0635
61.4108 62.2680 60.3200 56.3240 52.1355 48.5642
44.3700 40.6295 39.2907 36.7728 35.5979 35.7210
37.0142 34.8185 28.8230 22.7649 17.1058 11.8126
6.6109 1.3847 -3.6819 -9.5293 -15.6296 -21.0437
-25.9006 -29.2132 -29.4999 -25.6034 -20.8793 -17.2438
-14.4622 -13.3401 -14.8518 -17.8808 -21.3138 -25.1780
-28.6834 -30.1556 -30.2054 -30.8523 -31.8820 -32.4019
-31.7780 -29.9347 -27.2919 -25.1292 -23.9370 -23.2078
-21.8551 -19.6369 -16.5973 -12.6761 -8.6414 -4.1913
1.2398 6.1953 10.2824 13.3160 14.8113 15.1502
14.3805 13.3220 12.7391 12.9276 13.2731 12.0164
8.8936 5.0469 1.2430 -1.8469 -4.5471 -7.2391
-10.1558 -13.9048 -17.8562 -21.0804 -23.1729 -23.3400
-20.7069 -16.3470 -12.4994 -10.1266 -10.3158 -11.6371
-12.9523 -14.2250 -14.0406 -13.1508 -10.7403 -8.2194
-5.7552 -3.6975 -3.8118 -5.5109 -8.1627 -10.8635
-13.4776 -16.3790 -19.5305 -23.1214 -26.4898 -29.1860
-30.7055 -31.1771 -30.3926 -29.6766 -28.5835 -27.2532
-26.7548 -27.2496 -28.4154 -30.6678 -34.3591 -38.3135
-42.6053 -47.7144 -53.1801 -58.8508 -64.4535 -68.9887
-72.3569 -73.2940 -70.9922 -64.6949 -58.7781 -50.4468
-43.8677 -36.6254 -26.4790 -21.0764 -17.7360 -15.8137
-14.8174 -14.6104 -14.3720 -14.0619 -13.2714 -11.8686
-10.2249 -8.3674 -6.8096 -6.0964 -5.5816 -5.5786
-5.3943 -5.8269 -6.5393 -7.3413 -9.7177 -12.4954
-15.6164 -18.8735 -22.2619 -25.4427 -28.4144 -30.9054
-32.1235 -32.4068 -31.1685 -29.0061 -26.4079 -21.9512
-17.1543 -12.9024 -8.8153 -5.5615 -3.0704 -0.8310
0.7497 2.3177 3.8185 5.1570 6.4052 6.9317
6.7434 5.6596 4.6624 4.1033 4.5266 5.8681
7.6806 9.8934 12.4940 15.2680 17.9292 20.3832
22.5206 24.1125 24.6746 24.1737 22.9955 21.2524
19.6868 18.6286 18.4898 19.4363 21.3197 23.4281
24.8987 25.1220 24.0089 22.2001 20.6679 20.1562
20.3931 21.4506 23.1997 25.2451 27.1819 28.8365
29.9411 30.2498 29.7728 29.1657 28.9508 29.2203
30.2935 31.9446 33.9598 35.7321 36.6011 35.5375
33.1179 28.7803 21.9692 13.7240 5.1556 -3.4037
-11.7018 -19.2561 -25.6086 -30.4796 -33.8822 -35.4141
-35.8766 -35.1582 -34.0020 -32.3531 -30.3581 -28.2080
-25.7673 -23.3641 -21.4626 -19.8342 -18.3117 -16.5059
-14.5061 -12.3083 -10.5085 -9.0971 -7.5190 -5.5696
-3.5378 -1.7920 -0.1135 1.5571 3.6245 5.9191
8.9596 11.9114 14.2878 15.5961 15.9856 15.6069
15.0934 14.2660 13.6403 11.3610 10.3889 9.8343
8.7264 8.0577 6.7917 5.4418 3.5243 1.6578
-0.6401 -3.3267 -5.2743 -6.3071 -6.8481 -6.4667
-5.6014 -3.5008 0.4717 4.7230 8.3045 10.8661
12.6659 13.6369 13.5916 11.9128 9.6155 6.7147
3.5445 2.1206 0.7743 -1.5143 -4.3209 -5.9231
-7.3626 -7.3146 -6.2806 -4.3955 -1.6341 1.7268
5.0917 7.7067 9.4069 10.1380 10.2460 9.9434
9.7482 9.8296 10.1561 10.0197 9.3028 7.9550
6.0176 4.1650 2.5979 1.5958 1.3801 1.6866
2.4684 3.3908 4.3306 4.8846 4.7024 3.3217
1.4682 -0.6895 -2.2135 -3.6983 -4.6919 -4.0932
-1.1511 3.8156 9.1003 13.7550 17.7341 20.6892
22.3496 23.0034 22.5653 21.4737 20.3154 19.7496
19.2880 18.5095 17.6101 16.7755 15.7780 14.4791
13.0546 11.7445 10.0434 8.1287 6.3693 4.9859
4.0490 3.6936 3.6607 4.2129 5.0990 6.1958
6.7087 6.8985 6.7896 6.7096 7.1571 7.6308
7.9008 7.8281 7.2949 6.1550 4.3281 3.0328
1.6575 0.4518 -1.1229 -2.7670 -5.0369 -7.3040
-9.5266 -11.3300 -13.0407 -14.1650 -15.5071 -16.3030
-17.3992 -18.2286 -18.6532 -19.9409 -20.4436 -19.9922
-19.0273 -18.1402 -16.1030 -13.6982 -10.5790 -7.9471
-5.1272 -3.3533 -2.0263 -0.8041 0.6231 2.1302
3.8033 5.6190 7.6475 10.1995 13.1806 16.5068
20.2071 23.4606 26.8607 29.7796 32.1705 33.7195
34.4980 34.4307 33.3327 31.3561 28.5612 26.2196
24.7619 23.8522 23.5674 23.7472 23.0258 22.0428
20.9915 20.2001 19.5074 18.9166 18.5895 18.9338
19.4105 20.0987 20.5060 20.6771 20.1518 18.5255
15.9612 12.6621 9.0939 5.8995 3.9127 3.6951
5.2834 7.4477 8.8667 8.9478 8.3067 6.5386
4.3203 1.9375 0.4730 -0.0535 0.3447 1.0933
0.6389 -1.6762 -4.8362 -9.3932 -14.3408 -18.6311
-21.4576 -22.5677 -21.6903 -19.4647 -18.3583 -17.6402
-18.2618 -19.2234 -20.5416 -22.1589 -24.0278 -25.7953
-27.3727 -28.7962 -29.6564 -30.0303 -29.8043 -28.9818
-27.7752 -26.3526 -24.3561 -22.2283 -19.9672 -17.5142
-15.4145 -14.0196 -13.1690 -12.7457 -12.6344 -12.8015
-13.1871 -12.6667 -11.8571 -10.5999 -9.3884 -8.5086
-8.1384 -8.2600 -8.3514 -8.3789 -7.8629 -6.4789
-4.6921 -2.8848 -1.4305 -0.6294 -0.8750 -1.7838
-3.0827 -4.3904 -5.2950 -6.5719 -8.3856 -11.1144
-14.5058 -18.3105 -21.7131 -24.3091 -25.3766 -25.0025
-24.0560 -22.8925 -21.4786 -19.8852 -18.0631 -15.9827
-14.2798 -13.1010 -12.3832 -12.2616 -12.5051 -13.0865
-13.6670 -14.2207 -14.8178 -15.1334 -15.9025 -17.0340
-18.8781 -21.0705 -23.4686 -26.1123 -28.4995 -30.1696
-30.8974 -30.7797 -29.5541 -27.1270 -23.4167 -19.2264
-14.6791 -10.0576 -5.9867 -2.7169 -0.4316 0.9940
1.7163 2.0000 1.9040 1.6753 1.0694 0.8160
0.1959 -1.5879 -2.5751 -2.7061 -2.0833 -0.8571
0.8896 2.8291 4.6482 6.2841 7.6228 8.6556
9.5412 9.9066 9.8481 9.4905 9.5871 10.3616
11.3485 12.6604 14.6418 16.8701 18.8925 20.7804
22.7214 24.5438 25.5655 26.2790 26.8632 27.7521
28.5733 28.9614 30.1275 32.1958 34.3846 35.8331
36.8161 36.6016 34.8229 31.9182 28.6150 25.1237
21.4837 18.3436 16.2904 15.1861 15.1707 16.0152
17.0854 17.8461 17.5114 16.3803 14.6710 12.7961
11.1203 9.5462 8.4250 7.1264 5.3984 3.4230
1.4702 -1.2716 -4.2786 -7.2554 -9.6478 -10.4344
-11.8875 -13.7277 -14.4666 -13.6912 -12.1150 -11.3121
-11.3715 -11.9714 -12.2502 -12.2514 -11.9056 -12.1554
-11.3191 -12.3630 -15.5520 -18.0170 -19.7695 -20.1152
-19.2273 -18.0228 -17.4543 -17.3466 -17.5192 -17.5750
-17.5343 -17.2404 -16.6681 -15.9237 -14.4694 -12.2095
-9.0450 -5.7103 -2.4294 0.1513 1.5681 1.8358
1.3346 0.3410 -0.6930 -1.6163 -2.4714 -4.3846
-6.8551 -10.5160 -12.4274 -14.1303 -18.7775 -21.4810
-20.8920 -15.5026 -11.5832 -8.5693 -6.2810 -5.1709
-4.7573 -4.5213 -4.4100 -4.3080 -4.2875 -3.8585
-3.9297 -3.8904 -2.9494 -2.6567 -2.7433 -2.9485
-2.5795 -1.2425 0.9184 3.1977 5.1987 6.6663
7.7642 8.5949 9.6757 10.7353 11.6164 11.9066
11.4938 10.4173 8.9020 7.0962 5.2273 3.5274
2.1775 0.9953 0.2193 -0.7034 -1.6707 -2.4827
-2.5575 -2.0096 -2.2111 -1.5609 -0.2412 1.6389
4.4039 8.0345 12.1060 15.8380 19.0535 21.2618
22.9500 24.1704 24.9966 25.0171 24.7343 24.3327
24.2296 24.5605 25.3625 26.2158 27.5841 28.9742
30.3174 31.4085 32.3459 32.7119 32.0487 30.3778
28.5267 26.9025 26.1530 26.1823 26.3253 26.5748
26.5564 26.8346 27.2090 27.7223 28.3405 28.8821
28.9346 28.9026 28.0541 26.4556 24.1220 21.5906
18.3039 14.7097 9.9727 5.7153 1.5548 -2.8208
-6.1877 -8.9687 -12.0095 -15.4257 -17.0299 -17.9067
-18.2809 -17.7085 -15.9736 -13.8184 -12.2193 -10.7592
-10.4711 -10.4496 -10.9167 -11.0576 -11.4707 -11.4816
-12.4954 -13.0192 -13.9515 -13.0122 -12.3315 -11.6192
-11.0833 -10.5459 -10.5628 -11.7562 -13.4896 -15.7076
-17.3526 -19.6903 -20.5249 -22.3736 -22.5290 -23.3557
-22.6418 -19.2818 -19.4475 -16.4806 -12.3295 -10.9277
-8.6104 -8.2408 -6.8037 -7.3037 -6.2645 -6.6773
-6.6888 -7.5227 -8.9242 -10.5735 -12.8527 -15.9511
-18.7092 -21.0331 -22.5070 -22.7529 -22.2699 -21.9220
-21.3955 -20.9544 -20.3959 -20.3572 -20.3364 -20.7380
-20.9770 -21.7189 -21.8783 -22.7228 -22.5436 -24.2254
-23.9864 -25.3031 -23.0683 -23.2523 -21.7341 -16.2683
-17.6937 -13.6367 -14.7377 -14.3491 -13.5332 -16.0052
-18.6124 -21.2583 -23.1748 -26.0654 -29.8942 -31.5718
-30.6510 -28.7809 -25.6927 -22.5283 -17.9653 -13.7463
-9.9756 -7.0440 -5.7850 -5.1441 -5.3266 -5.5961
-6.0601 -6.9131 -8.7271 -10.3833 -12.1348 -12.9552
-12.9470 -12.9380 -13.2310 -10.8561 -12.4260 -10.8139
-10.7143 -11.6780 -8.8167 -8.2836 -8.1548 -5.6556
-3.1811 -1.0537 1.6534 5.8232 9.9384 13.7999
16.9602 18.5961 19.8866 21.8418 23.1190 24.6469
26.9310 27.8829 28.7663 28.0645 26.5562 24.2525
23.9282 23.6455 24.1210 25.3309 26.2330 28.0660
30.6168 32.7509 33.5173 34.4414 34.1551 32.4365
30.6862 28.0219 25.0252 22.4672 20.8391 19.3153
19.0387 19.1660 19.2794 18.8486 17.4401 15.3869
12.7477 11.0686 9.9827 10.4672 11.7134 13.7497
16.0868 18.2074 19.9577 20.7886 20.7234 19.7440
17.4503 17.0110 15.1617 15.7812 15.8213 19.0063
17.8676 20.4193 19.3415 16.8643 16.4341 13.1257
10.4485 8.2519 7.6427 6.7056 5.5472 2.8564
1.7235 1.0754 -0.8979 -3.7616 -4.4163 -6.0393
-5.0506 -3.7508 -5.0898 -1.9932 -2.4271 -0.6481
1.7198 0.2088 -0.3395 2.9493 -0.3512 0.8035
5.9663 2.5486 9.4871 2.8313 6.4363 9.7894
7.6541 5.0490 1.8377 6.2725 5.7592 4.6332
7.8384 10.1267 10.8777 12.8884 11.4902 10.7844
13.2498 12.7327 10.6173 7.8674 6.2130 1.6271
-1.2683 -2.8297 -5.1476 -5.1605 -5.6110 -4.2207
-3.5388 -2.2326 -1.3413 0.2198 1.6566 3.7735
5.0661 6.4383 8.3923 9.1318 8.7619 7.8815
5.9737 4.5272 3.7608 2.2115 1.4565 0.4497
-0.1354 -1.2472 -2.0115 -4.3978 -3.8191 -5.9225
-7.0545 -7.2045 -7.3137 -8.2195 -9.2894 -9.7438
-8.8894 -8.2717 -8.2669 -6.5878 -1.2509 -0.2434
1.7476 5.8870 5.5319 7.3528 9.1344 9.3366
8.1191 9.0231 9.1700 7.9420 5.9950 5.5047
2.9560 2.7246 1.0889 -0.6593 -1.7274 -1.7871
-1.4492 -3.1615 -2.9687 -3.1280 -2.2518 -1.8496
-0.1038 1.2793 3.2157 7.1635 6.5127 8.9328
10.5854 12.3824 13.9224 15.3420 15.9862 15.4129
14.7334 13.6128 11.9211 10.4438 10.0609 10.7027
11.3683 10.6979 10.2800 8.2089 7.1529 3.4670
1.5981 1.4801 -3.7632 -4.4653 -4.9092 -5.4692
-7.0008 -7.2147 -6.4507 -7.0952 -7.4709 -8.4433
-8.8175 -9.4659 -9.5564 -8.8365 -7.4196 -5.8862
-2.0543 -1.4810 0.3456 1.1965 -0.1688 -1.9451
-3.6354 -4.3981 -5.3075 -5.0420 -3.6692 -3.2697
-2.7052 -2.0897 -1.5058 -1.1682 -0.5913 -0.4124
-0.7651 -1.2853 -2.8322 -5.4678 -8.0557 -10.6792
-12.2617 -13.8162 -14.2447 -13.4650 -12.8034 -12.2705
-11.8547 -11.9525 -11.9628 -12.2515 -13.0291 -13.1166
-14.5670 -14.7703 -14.0389 -13.7967 -12.7310 -10.6316
-8.3403 -6.0028 -4.9972 -5.5279 -8.1789 -11.7558
-15.1617 -18.6511 -21.6259 -23.4193 -25.3371 -26.2579
-27.3282 -27.6483 -27.8616 -26.9100 -26.8937 -25.8953
-25.2593 -24.0023 -23.4691 -23.1285 -23.1656 -22.8422
-23.1508 -21.2599 -20.5970 -18.3063 -16.4477 -18.5701
-18.9192 -19.4626 -20.1589 -22.5803 -23.5259 -24.9772
-26.1129 -28.0156 -28.7394 -29.8265 -29.9252 -29.7550
-28.7071 -27.7350 -26.3911 -24.5026 -22.3613 -20.5543
-19.1636 -18.2539 -17.9872 -17.9136 -18.1070 -18.0883
-17.3074 -16.1941 -14.8031 -13.4182 -11.7198 -10.6520
-8.4750 -6.9070 -4.8501 -2.8648 -1.1124 0.8787
2.8327 4.7538 6.7596 8.8569 10.5432 12.3497
13.7258 14.3715 14.3818 14.0743 13.0382 11.4771
9.4612 7.5631 6.0173 4.0003 1.9072 0.3422
-1.4492 -2.8579 -4.0974 -4.5068 -4.9235 -4.9631
-5.2301 -5.5759 -5.8360 -5.8287 -5.4802 -4.5262
-2.5970 -0.9722 0.2024 0.0914 -1.1973 -3.2750
-5.8846 -8.5461 -10.8464 -12.3596 -13.3254 -13.7819
-13.3656 -12.1698 -10.7946 -9.4329 -7.9704 -6.6075
-5.0624 -3.4500 -1.5048 0.2850 2.5622 4.5867
6.3757 7.3946 8.5677 10.1179 10.2269 10.4676
10.9269 12.2206 13.1195 14.2968 15.5420 16.3802
16.5730 16.8132 16.6219 16.7184 16.7299 16.4964
15.6542 14.5204 13.2157 11.8588 11.2768 10.9624
11.0970 11.6808 12.6548 13.6601 14.6283 15.0710
15.0547 14.4060 13.7482 13.0419 12.1134 11.2357
10.1242 8.8225 7.6745 7.0801 7.3172 8.5485
10.8917 13.8888 17.0201 20.3101 23.2682 25.6252
27.3710 28.5764 29.3036 29.3781 28.7330 27.2844
25.0353 22.6683 20.8824 19.9467 19.9817 20.6558
21.5531 21.9454 21.6403 20.6096 19.4863 18.9700
18.7591 19.3372 20.1477 21.1292 21.7857 22.2090
22.6287 23.1187 23.6470 24.3667 25.0760 25.4990
25.4541 25.0307 24.1889 23.6003 23.3378 23.7620
24.2671 25.6613 26.9204 27.9940 27.5842 26.9518
27.3790 26.2596 25.5448 24.8816 24.6418 24.4894
24.5881 24.4906 24.5485 24.6665 24.7504 24.8892
25.0032 24.9190 24.5168 23.0806 21.2923 19.2921
16.8575 13.7265 10.9193 8.9050 7.1040 5.8198
4.8833 4.6102 4.9795 5.2903 4.9617 3.9431
2.1768 -0.5089 -3.7678 -7.0382 -10.2842 -13.3298
-16.4186 -18.9977 -20.6611 -21.1360 -19.1908 -15.0515
-10.4462 -6.3696 -2.9635 -0.4797 0.8769 1.7489
2.0814 2.0741 2.1936 2.2503 2.2069 1.8490
1.4471 1.4797 2.1685 3.1105 4.0181 4.6719
4.6840 3.7019 1.5035 -1.7892 -5.5940 -8.9878
-11.0304 -11.6025 -10.9580 -10.1660 -9.9225 -10.1739
-10.3341 -10.3594 -10.3833 -10.8235 -11.9043 -13.1770
-14.3718 -15.1822 -15.4957 -15.3180 -15.0501 -15.1276
-16.2721 -18.7498 -21.6355 -24.5695 -27.0259 -28.8244
-30.1122 -30.8837 -31.1707 -31.1360 -30.7920 -29.9333
-28.7702 -27.5913 -25.8833 -24.0910 -23.7860 -23.8644
-23.9302 -23.3735 -22.0402 -19.7305 -16.9429 -13.6459
-10.6721 -7.8091 -5.5126 -2.8638 -1.3166 0.6087
1.1799 0.9943 1.5664 0.0149 -1.2282 -3.1037
-4.4488 -5.1871 -5.6231 -5.4858 -5.3935 -4.9557
-4.6579 -4.3897 -4.1326 -3.9434 -3.4667 -2.9263
-2.2278 -1.4422 -1.3221 -1.7578 -2.2164 -2.4255
-2.6768 -2.8017 -3.4912 -4.6703 -5.4159 -6.2426
-6.7049 -6.2369 -5.8498 -5.4992 -4.3228 -3.6611
-2.9723 -2.2185 -2.0336 -2.7058 -3.6433 -4.5494
-5.0050 -5.1972 -5.7270 -6.5185 -7.3029 -8.4911
-10.8543 -12.5478 -14.6970 -16.7853 -18.1246 -19.5931
-20.8655 -22.0142 -21.6210 -21.8745 -21.4922 -20.1685
-18.5993 -16.6227 -16.9175 -15.9749 -13.2750 -11.8222
-10.4162 -8.5437 -5.9413 -4.3340 -2.6178 -0.7876
0.6601 2.2997 3.7259 4.1694 4.1384 3.7380
2.8844 1.8615 0.8592 0.4709 0.3746 1.3199
1.7671 3.1668 4.6012 6.3617 8.0517 10.0123
11.6832 13.6737 15.4458 16.5582 17.5850 16.4671
15.4666 13.5038 12.1071 9.9733 9.5141 7.8254
7.4295 5.6973 6.0524 5.3443 6.4118 5.8092
7.8495 7.8869 9.2567 8.0749 7.2077 6.5122
5.2643 4.0414 1.8358 0.1286 -1.9177 -2.8570
-3.4477 -6.2121 -6.6584 -8.8130 -8.4078 -10.8147
-11.0579 -13.7758 -12.9907 -11.0552 -14.5983 -12.5541
-12.7092 -8.1538 -9.5776 -6.5154 -6.1995 -4.7066
-4.7344 -2.6977 -3.1648 -2.6651 -2.5716 -1.9763
-2.6151 -2.7502 -3.4756 -4.2954 -5.9585 -7.5558
-8.5041 -9.4066 -9.3810 -8.5244 -7.6358 -5.9986
-4.4043 -2.6733 -2.2367 -2.8115 -3.8471 -5.3982
-7.4334 -8.9022 -9.8158 -10.3218 -9.4254 -7.6020
-4.8111 -1.4079 2.6545 6.1424 9.0595 10.8363
11.5013 11.0038 10.2205 9.5643 9.0966 8.5188
8.4735 8.5737 8.2303 6.7371 5.4493 3.5961
1.3990 -0.8408 -2.4737 -3.8342 -4.6621 -5.1630
-4.7083 -3.5916 -2.2185 -0.7300 0.4977 1.7806
3.5321 5.3651 7.3260 8.7263 9.2480 9.0298
7.9587 5.9187 3.6854 1.4704 -0.3348 -2.5082
-4.3749 -5.3257 -5.0683 -3.4314 -0.4981 2.6021
5.4513 7.7070 9.2401 10.3036 10.8033 10.9629
11.0130 11.4466 11.9302 12.1713 11.9649 11.4991
10.5827 9.1933 7.7607 6.5601 5.7663 5.2950
5.5596 6.2587 7.3385 8.9135 10.6171 12.2962
13.6769 14.6152 14.8479 14.3382 12.8163 10.3609
7.8668 6.1560 5.0019 4.2301 3.2909 2.2590
0.8200 -1.1620 -3.2955 -5.5925 -7.8745 -9.8366
-10.9083 -10.5601 -9.0681 -7.1667 -4.5767 -1.9957
0.4202 2.2233 3.4610 4.3535 5.1389 5.6780
5.9261 5.5613 4.9068 4.3127 3.9482 3.9003
3.8100 3.6767 3.4609 3.4624 3.7168 4.4642
5.6252 7.1863 9.1792 11.6352 14.4359 17.1710
19.3066 20.4160 20.2821 19.0043 16.9975 14.7342
12.6813 10.9491 9.7428 8.8575 8.5087 8.7269
9.9531 11.8561 12.4649 12.0914 11.3742 10.6805
10.1736 9.8966 9.7099 9.5620 9.6773 9.6978
9.1257 8.4230 7.7417 7.3648 7.1642 7.2822
7.7978 8.5509 9.5958 10.3609 10.4850 9.8679
8.4987 6.7363 5.1151 4.1240 3.6617 3.7740
4.5247 5.6434 6.7396 7.3409 7.8804 7.7766
7.1343 5.8558 4.0253 2.0064 -0.0933 -2.0542
-3.7070 -4.6955 -5.2120 -5.5868 -5.7775 -5.7356
-5.8225 -5.9208 -6.4223 -6.9744 -8.0344 -9.2304
-9.9757 -10.1115 -9.9591 -9.3711 -8.5703 -7.5791
-6.6432 -5.8512 -5.9589 -7.1637 -8.8720 -11.4889
-13.8363 -15.1555 -15.2780 -14.6338 -12.9918 -10.9416
-8.6099 -6.1810 -4.0680 -2.5316 -1.9927 -2.2046
-3.3535 -5.2203 -7.1408 -8.9309 -10.5497 -11.8966
-12.8911 -13.6731 -14.2513 -14.2464 -13.9676 -13.3826
-12.8398 -12.2768 -11.5886 -10.8840 -9.8045 -8.9675
-8.3728 -8.1254 -8.2530 -8.5249 -9.0770 -9.5254
-9.6799 -9.3685 -8.4437 -7.5440 -6.4297 -5.7913
-5.3984 -5.7572 -6.5151 -7.3934 -8.0584 -8.1414
-7.4752 -6.1570 -4.4459 -2.4874 -0.5793 0.9613
2.1501 2.8637 3.0393 2.5903 1.8707 0.7694
-0.4725 -2.0572 -3.7124 -5.5294 -7.0604 -8.7917
-10.2128 -11.4239 -12.5575 -12.9971 -13.2575 -12.6303
-11.1370 -8.5392 -5.5533 -2.1879 0.5708 2.6225
4.0814 4.9352 4.6899 3.7494 2.3893 1.1579
0.0708 -1.0477 -1.6020 -1.3748 -0.8962 -0.7092
-0.7502 -0.6835 -1.0043 -1.4354 -1.8443 -2.3116
-2.4903 -1.8600 -1.3163 -1.0897 -0.9850 -0.8341
-0.6057 -0.7641 -0.4365 -0.1359 0.6832 1.5691
3.1357 4.7230 5.5513 6.6625 6.1408 5.6167
4.2798 2.3095 0.9273 -0.5484 -1.3281 -2.4161
-2.8624 -3.2779 -3.3590 -3.1436 -2.9028 -2.0559
-0.8128 0.7348 2.0563 3.3169 3.5323 3.5927
2.6920 1.7344 0.2791 -0.9018 -2.7565 -4.0373
-4.6900 -6.4427 -6.4548 -7.4128 -8.1505 -8.9344
-9.7771 -10.6252 -11.2160 -11.1937 -10.5299 -8.8656
-6.9086 -4.9042 -3.1871 -2.0186 -1.9063 -2.8513
-4.6357 -6.9035 -9.1323 -10.8452 -12.1535 -12.6966
-12.4999 -11.6837 -10.2026 -8.3832 -6.0813 -3.4240
-0.6693 2.1781 4.9865 7.4610 9.5012 11.1115
12.0973 12.5764 12.8676 12.7822 12.5637 12.3501
11.9660 11.1353 9.6714 8.0611 6.5361 5.7468
5.9912 7.1188 8.8413 10.9102 12.9372 14.7044
16.2462 17.1592 17.4926 17.5488 17.6378 17.9519
18.2946 18.8021 19.1603 19.1183 18.9810 18.8465
18.7336 18.5571 18.5333 18.6443 18.7294 18.4765
18.3214 18.4454 18.6443 18.8069 18.8066 18.6008
18.4406 18.0870 17.2503 16.3361 15.3289 14.4403
13.5780 12.7579 11.7990 11.0196 10.6437 10.4732
10.2919 10.3320 10.4563 10.7007 10.9225 10.9213
10.4183 9.5393 8.4248 7.3443 6.1516 5.0204
4.1686 3.6587 3.2278 2.8935 2.3163 1.3143
0.0697 -1.4079 -2.8869 -4.3835 -5.7177 -7.0139
-8.2607 -9.3004 -9.9555 -10.2502 -9.8891 -9.0904
-8.0724 -7.1286 -6.7481 -7.0565 -7.9131 -9.5005
-11.4997 -13.5584 -15.4686 -17.1272 -18.3196 -19.3741
-20.0416 -20.6221 -20.9935 -20.6583 -19.9815 -19.1826
-18.4871 -18.0885 -17.7494 -17.4099 -17.0135 -16.5865
-15.9834 -15.2626 -14.8172 -14.5484 -14.4962 -14.6667
-15.0016 -15.2801 -15.8543 -16.5136 -16.7788 -16.5724
-16.0390 -15.1341 -13.9845 -13.0637 -12.5082 -12.3302
-12.4750 -13.2402 -14.5234 -16.1286 -17.7468 -19.0203
-19.7478 -19.7879 -19.1706 -17.9637 -16.5194 -14.9444
-13.3347 -11.7753 -10.1472 -8.6220 -7.0322 -5.5541
-4.2250 -3.0308 -2.2237 -1.9144 -1.9005 -2.0547
-2.1612 -1.9585 -1.1070 0.1017 1.4604 3.2692
4.5301 5.5925 6.3160 6.9128 7.3144 7.2939
7.4665 7.6354 7.5866 7.5371 7.2842 6.5927
5.8052 4.7051 3.4463 2.0457 0.7383 -0.6973
-1.8131 -2.4561 -2.4362 -1.8804 -0.8060 0.2932
0.6945 0.6541 0.0509 -0.6165 -1.2622 -1.6979
-1.4897 -0.7622 0.2799 1.3245 1.7783 2.1014
2.5425 3.2437 4.2231 5.4563 7.1586 8.9795
10.7084 12.2345 13.4055 13.9727 13.9395 13.1361
11.9237 10.2666 8.5565 7.4479 6.8354 6.6136
6.6263 7.0080 7.5719 8.4324 9.5313 10.9443
12.6198 14.1054 15.2985 15.9810 16.1505 16.1882
15.6436 14.7569 13.4857 11.7815 9.9588 8.3120
6.9123 5.8822 5.2987 5.2950 5.7893 6.7376
7.7387 8.4378 8.6629 8.4221 7.6225 7.0221
6.6618 6.5779 6.8670 7.3564 7.8304 8.3150
8.9504 9.5949 10.0855 10.4626 10.5504 10.2686
9.7855 9.2684 8.9404 8.7714 8.8276 9.0089
8.8058 8.3155 7.2601 