Archivo de aceleración parte de la Red Nacional de Acelerógrafos (RENAC) Ecuador
          
Evento: 201604162358
Fecha del evento UTM (aammdd):                  2016    4   16
Hora del registro UTM (hhmmss): 23   59 20.00
Estación:                                      AMNT0
Componente:                                        E
Frecuencia de muestreo (Hz):            1.000000e+02
Unidades: cm/s^2
_____________________________________________
3.4816 12.9617 22.8645 29.7117 31.7559 23.1535
8.3162 -10.4648 -23.5241 -27.1419 -21.9616 -14.9046
-10.3125 0.8845 14.2664 25.0863 26.7291 19.7887
11.6274 6.4429 -2.2833 -9.4680 -14.0652 -15.6442
-14.0286 -3.7685 3.5271 4.8612 3.3536 1.9772
4.8648 7.9721 9.5262 7.3182 9.0903 13.0136
16.8601 22.0911 27.1068 26.1520 15.4113 3.7628
-3.3775 -10.6563 -19.2407 -21.3368 -19.0593 -16.4341
-0.2966 16.5364 26.1607 31.8992 29.7314 20.8719
15.6115 14.1294 15.9464 15.8903 8.7032 -0.3926
-3.1380 -3.5595 -10.2247 -19.3906 -22.1984 -22.7905
-20.7307 -12.2572 0.3263 18.4346 37.1499 47.0489
44.2998 32.0335 14.7157 -2.1580 -13.6245 -15.6661
-11.4463 -5.0947 -0.9757 2.1592 7.6150 14.6543
18.8978 15.5435 7.9658 1.2568 -8.6934 -19.7288
-26.3460 -29.4634 -23.7096 -9.5519 -1.4035 4.2313
2.5693 -5.3846 -14.9538 -25.1750 -30.6770 -31.2648
-24.7685 -11.4646 -2.7678 -3.1488 -7.5320 -15.1516
-20.1695 -20.3167 -17.4171 -17.3101 -14.9397 -6.0687
8.5668 23.3793 30.0081 26.8733 17.1362 7.9046
5.8124 5.0869 -0.2958 -8.4370 -15.0170 -16.4048
-12.0729 -8.3873 -10.3692 -14.0613 -12.5708 -6.6248
-2.2552 0.3866 0.0712 -1.7137 0.2259 2.5552
3.1809 3.2138 1.5941 1.5326 4.6138 11.3207
15.8585 16.3547 14.5712 14.5386 16.0672 19.5405
20.4740 11.6243 -0.6954 -11.4208 -20.3149 -28.4046
-33.9333 -32.6673 -24.6195 -13.9576 -6.6365 -6.5817
-13.0580 -20.1086 -20.7885 -11.2625 -2.1499 -2.0768
-8.6823 -18.6466 -27.0577 -32.6358 -36.7650 -38.4501
-34.2831 -24.6141 -8.5672 6.9171 15.8339 17.3766
11.9403 7.3125 4.1096 -0.7095 -4.1576 -7.0550
-5.4584 7.7766 24.1041 31.3805 28.8069 10.4096
-12.8679 -25.7488 -30.9480 -28.1885 -20.6722 -7.2928
10.9051 27.8619 37.5411 41.7642 39.4247 25.8078
4.7904 -11.4328 -21.8291 -31.8809 -35.7296 -26.2641
-9.7966 9.9608 24.5994 24.1542 13.9396 -0.7203
-13.3185 -20.5535 -23.1356 -22.1712 -19.7279 -15.6047
-10.6855 -6.1023 -1.4122 -1.4557 -5.7429 -11.2671
-17.7053 -22.9137 -26.3733 -29.7312 -27.5044 -20.1833
-5.2599 12.5300 24.6185 30.9185 26.7785 12.7272
-0.2871 -8.1313 -11.0878 -7.2394 -2.0591 12.2155
30.8844 45.1350 46.6666 39.0490 24.0355 6.6425
-8.1841 -18.4706 -18.7512 -11.5495 -2.9981 -1.4164
-4.8160 -10.6960 -16.4489 -18.8427 -21.8183 -24.3728
-22.9176 -16.2588 -5.7702 6.3577 18.4220 28.0067
34.2677 32.2922 20.5061 3.7558 -11.7506 -18.6802
-14.5638 -2.1689 11.4510 17.4521 16.5819 12.0185
3.4500 -6.7172 -14.2140 -19.2989 -16.2846 -7.1087
0.8509 5.1918 10.4521 17.1586 20.4692 23.0842
17.5954 4.9487 -3.6699 -8.0219 -8.5054 -2.4588
7.3523 17.3754 25.0955 26.3318 17.3469 2.5084
-8.7887 -18.2635 -18.8160 -6.9636 2.2362 5.1174
1.6978 -6.2022 -13.1404 -17.7745 -16.6180 -17.0847
-18.2755 -16.1239 -11.1843 -3.7098 7.2021 17.9531
25.3158 28.8728 26.8954 19.6244 11.3071 4.2543
-1.6697 -3.8117 0.4821 7.9237 13.0579 16.0254
17.8398 20.4398 24.9366 29.7871 31.7501 28.0697
19.0890 11.2274 6.2404 4.0247 1.7239 -0.9529
-2.2135 -3.1492 -2.5745 1.1938 7.6269 10.6749
6.9338 -2.3371 -11.8676 -18.2485 -17.9244 -4.8481
12.6217 27.4350 36.2817 39.2436 34.6805 28.2480
23.9776 21.0097 17.4155 12.7434 11.1119 13.3160
16.9245 20.2143 23.2638 22.3635 16.1708 5.8969
-4.9536 -11.1550 -10.9811 -5.3700 4.9774 16.5486
25.6234 29.4618 26.0653 14.7310 1.1521 -8.0576
-14.8942 -21.2035 -30.2897 -40.4312 -48.0952 -47.2819
-33.5325 -17.2589 -5.3085 2.2191 6.8850 11.4561
16.7935 22.2163 27.6448 29.3611 27.0426 21.6311
15.7442 12.7635 12.5896 15.1246 20.6607 24.4356
19.4052 7.0741 -6.0529 -20.8423 -33.2981 -32.9359
-19.0019 -2.2711 9.2865 14.0639 8.5413 -3.8630
-18.8400 -35.6400 -46.6877 -47.0535 -36.6416 -18.5219
1.2807 11.6833 16.9644 16.7401 11.1824 4.5259
-4.9131 -15.9953 -26.0475 -31.0002 -32.1781 -26.6284
-17.9799 -9.2355 -1.3217 7.3052 13.9818 16.6607
13.1595 5.6052 -3.1384 -9.5910 -13.4274 -16.7511
-21.4155 -24.6559 -28.9695 -30.5104 -29.4389 -29.9066
-27.5770 -18.8325 -4.5000 9.4388 22.4007 29.2817
32.2295 33.1504 29.6960 17.2147 -2.5772 -24.6957
-42.7192 -51.8240 -45.6885 -28.7296 -11.5153 -1.6701
0.4878 1.0499 4.2132 11.7882 20.3951 28.0579
33.0694 32.6111 25.9252 18.4585 15.6579 17.9782
17.8721 10.3493 -0.5534 -10.2823 -19.6542 -27.5200
-26.9216 -22.4746 -13.8195 -9.3509 -14.8085 -20.3917
-18.3885 -12.6695 -8.5112 -1.4087 12.3485 23.3741
29.3326 33.5791 35.0091 35.1338 31.7918 22.3281
6.6697 -8.2636 -18.7249 -24.2964 -20.6765 -6.4837
5.5866 14.0246 22.7811 28.8994 31.4335 31.9785
30.6807 28.4123 19.6054 7.6958 -1.1862 -10.1034
-15.4294 -17.7554 -16.5020 -11.3421 -7.5456 -7.1502
-8.5421 -10.2341 -11.0792 -10.9170 -11.6530 -12.0187
-11.5219 -9.3218 -4.2234 1.2423 2.0230 -1.2021
-12.0493 -28.4913 -46.6257 -60.8991 -67.2237 -61.6291
-44.8935 -17.7515 12.8450 39.4168 59.2222 68.3770
67.8344 58.4733 47.2472 36.8719 28.4329 20.2467
9.6669 1.2675 0.0477 4.4587 11.7307 14.2977
5.6054 -7.6070 -23.3824 -42.9551 -60.1610 -66.9077
-60.8485 -40.4222 -10.3639 15.2384 39.7801 54.1546
56.8565 51.0089 46.7798 47.4553 48.9455 46.7214
41.9329 39.1677 39.1026 39.7211 38.4988 34.0176
29.0226 29.1653 34.3801 43.6579 52.6365 56.6167
56.7082 57.2022 57.7328 56.5625 47.2475 29.0730
7.3763 -18.1436 -52.3058 -79.5788 -92.5703 -92.3719
-82.8039 -67.0313 -54.7136 -50.7846 -58.9367 -80.9656
-101.5141 -120.3809 -134.6462 -144.4801 -145.6585 -138.5422
-114.5366 -80.6763 -49.4752 -26.8896 -15.9486 -22.3176
-42.1157 -54.6402 -61.6561 -61.0178 -56.8949 -51.6957
-42.4980 -31.1466 -21.8235 -12.6498 -10.1466 -15.6437
-27.3672 -38.7992 -45.8589 -49.5885 -48.2326 -42.0816
-30.1813 -14.7708 3.3084 19.3629 33.3956 43.9861
48.7881 48.8175 40.6219 22.8737 0.0306 -22.6377
-44.8702 -64.4036 -72.3872 -59.6955 -18.2234 29.1131
64.4840 94.8532 116.5481 135.6337 147.1788 158.8554
161.8527 167.1394 168.3778 168.2112 159.3180 145.8795
123.7295 92.7193 48.6925 1.1320 -34.6712 -66.8985
-69.5384 -38.8376 -2.1108 24.2533 46.4357 50.8974
42.4011 27.2703 17.9485 10.4209 5.5712 -3.0440
-5.9181 -0.4434 19.8308 51.2295 86.0071 125.1742
159.4178 182.4540 185.3304 170.8550 161.2591 158.1722
162.5458 169.6390 170.3714 161.9807 143.4587 121.4074
96.5887 62.4466 34.2523 7.2368 -21.8073 -44.0713
-56.9132 -61.1795 -56.4677 -49.8005 -45.9584 -50.8779
-62.2779 -76.5333 -93.3606 -108.7657 -113.5994 -109.7286
-94.9531 -73.0294 -55.7716 -44.2793 -39.2927 -35.6482
-33.9658 -33.5937 -37.2706 -43.4438 -54.2187 -67.5586
-82.8234 -98.5010 -119.0511 -148.2538 -187.4395 -229.1769
-260.1271 -270.9011 -270.3018 -257.5495 -242.3528 -203.7008
-140.4501 -82.4226 -23.7122 28.6295 64.5835 87.4110
90.8199 98.5555 105.7075 104.0860 104.6538 108.2854
108.4668 111.2848 100.8168 67.7558 25.3772 -24.5216
-72.5387 -128.8418 -192.4420 -245.5662 -287.0641 -313.4935
-324.4600 -333.8664 -340.8889 -348.3209 -363.6738 -368.5984
-338.5769 -269.6939 -162.7092 -89.8060 -60.4150 -51.0446
-60.0175 -105.5067 -136.4842 -137.7179 -139.0576 -131.4298
-113.6237 -99.0239 -88.6854 -78.7559 -64.9220 -49.5601
-41.8367 -31.2225 -16.6412 -0.0735 15.9237 29.3808
35.0558 34.2757 28.0087 22.7666 19.1233 19.9121
31.0737 47.8227 69.7245 90.9452 109.7235 120.4957
116.3319 85.9055 36.3409 20.3036 8.6662 0.1867
-15.7055 21.4353 98.9147 168.4384 236.7407 271.4643
284.3066 292.6712 281.9443 256.5680 220.0489 184.9533
155.4672 122.9644 91.3804 62.6591 42.0641 34.2334
40.7202 63.9974 88.5364 96.0865 102.2714 110.7160
116.1326 99.7214 71.1488 48.0377 32.3268 18.9539
4.9479 1.2680 15.3097 34.7020 48.2895 55.8015
61.7787 60.2770 58.1360 55.8843 54.6617 49.8999
40.0427 31.3177 17.4880 0.8394 -20.5657 -44.8882
-66.1119 -79.8897 -73.5010 -47.6055 -18.8164 12.8344
48.1699 78.5655 102.6653 107.4112 96.5350 76.9134
45.9020 23.7589 6.9520 -5.2223 -4.6602 13.5212
47.4261 80.3162 101.7854 117.6297 126.0549 110.8449
87.3075 61.1134 32.9728 11.1652 2.5068 8.5666
29.5328 57.4986 78.9783 89.1704 97.7827 86.5524
35.0986 6.5338 -8.9676 -12.6666 -0.6749 18.3115
47.4315 68.8182 81.6158 92.2915 104.4682 111.7497
110.5407 98.8169 88.5325 81.3928 73.0860 65.4693
53.3963 36.8703 24.1807 10.7775 1.1931 -4.4057
-0.0318 17.0449 39.0995 58.1114 76.5554 78.7106
75.6141 64.2519 39.1691 18.8925 5.1919 6.5512
17.7656 39.9833 59.7755 75.1290 80.1936 74.8631
56.4565 26.1623 -24.9734 -83.2492 -161.5455 -232.4095
-288.9576 -329.8391 -374.5831 -397.1195 -363.7575 -298.9419
-216.3131 -141.8954 -62.8607 15.4602 65.5775 79.4031
85.7882 86.3647 83.7359 82.4684 72.3158 40.6650
11.8226 -15.3239 -44.5168 -81.2268 -118.0265 -153.5436
-176.9983 -161.7464 -145.2707 -108.6746 -67.3965 -47.8336
-26.8093 0.1282 23.3227 37.7316 41.1003 24.1774
-3.6110 -30.7455 -44.8544 -60.9907 -67.5503 -53.2978
-17.2824 12.2630 34.4792 45.1603 47.7388 47.5514
49.5803 46.1241 36.1691 20.4159 -2.7470 -35.7226
-76.4638 -122.1842 -166.9611 -202.9607 -215.6269 -207.0326
-198.2252 -188.7307 -178.6093 -163.6833 -153.8914 -141.3135
-134.8001 -112.5635 -66.5355 -1.6519 49.7425 125.4400
188.4511 236.8141 271.3603 263.3365 258.3588 240.0920
203.9815 165.2801 131.0571 103.9046 82.9543 59.5428
33.3679 5.0741 -17.9597 -35.1887 -43.3890 -43.8375
-33.2392 -8.1588 20.1144 34.2202 44.9378 48.7217
64.3520 85.2219 114.4145 137.8290 156.8546 171.6988
174.0389 156.2886 128.0538 97.4735 60.9653 17.9472
-34.9516 -91.7721 -119.7649 -114.9800 -102.4184 -73.6656
-68.6406 -82.7524 -95.8858 -108.8956 -125.0828 -144.3969
-146.3326 -115.4567 -80.6983 -55.5217 -46.2868 -46.0853
-54.5516 -80.1161 -131.0642 -194.1922 -243.1317 -258.5596
-249.1451 -211.3634 -140.3572 -80.9990 -34.5735 3.4882
20.5221 5.5759 -40.4805 -61.9293 -80.8218 -91.5224
-105.6099 -120.1840 -141.7668 -125.1014 -85.5396 -33.2407
25.1522 75.3739 164.8888 205.4772 240.8933 248.9252
225.3917 187.3488 132.7089 86.5262 45.8977 -0.4234
-46.2571 -78.7683 -98.6291 -97.3281 -56.3575 17.2838
77.2718 123.2240 150.5027 128.7514 94.3752 30.9492
-25.7877 -66.6054 -125.4087 -211.5232 -268.3206 -264.5221
-243.2654 -183.1703 -143.8234 -109.4922 -72.1415 -38.3799
-31.1164 -30.6673 -39.6288 -22.0161 -17.9051 3.0853
123.9626 195.8885 240.9523 196.6500 110.9549 42.2580
-5.2467 -54.7974 -123.6232 -156.9117 -96.3679 37.8976
181.1207 339.7534 363.0807 361.0131 382.3270 318.3199
233.7443 177.3638 118.7227 67.9029 -2.7692 -99.2548
-134.9081 -97.3592 -43.0371 -4.2043 38.6816 33.4092
1.9326 -22.3489 -51.1175 -82.5834 -62.1335 -28.1650
7.7266 37.9714 45.1668 42.2877 30.1401 15.3693
9.4530 6.3811 13.6566 29.5066 50.9974 65.9738
97.2685 118.4816 136.5147 183.7624 187.6051 164.5728
129.9832 86.3604 37.9699 -29.2784 -90.0427 -160.8536
-231.1238 -292.2700 -288.0655 -234.8759 -180.3943 -100.4971
52.4055 232.9864 327.3947 313.5815 278.4517 280.6857
237.6268 161.4158 43.5039 -40.2392 -110.8859 -171.9838
-197.6728 -159.9846 -76.8413 22.1292 116.6080 185.6142
210.5327 207.8793 229.4142 244.7854 233.5572 192.2092
125.9382 93.7178 81.0731 63.2586 53.3252 42.5158
34.8089 36.6253 49.3162 61.1454 65.2429 64.8820
52.2169 37.0966 22.2788 4.2002 -16.0195 -37.2405
-56.0514 -67.6217 -68.4239 -61.4314 -25.5197 13.8536
44.7597 67.5324 88.4652 101.6951 84.3096 60.8969
41.6012 15.5486 -18.2400 -53.9038 -82.3978 -113.3220
-121.7544 -124.1865 -136.7907 -150.7005 -156.6033 -156.6956
-150.8069 -131.9759 -111.0622 -90.6099 -72.1266 -62.5172
-52.8165 -53.0080 -72.0531 -87.0253 -94.6060 -88.2863
-58.8775 -29.5986 3.3602 32.6837 51.1778 75.9968
96.5711 100.2495 79.7744 69.3467 58.0351 42.9052
22.0284 0.0445 10.2879 17.5394 27.9909 33.3106
50.8978 75.9057 110.1868 142.4975 166.6063 172.1649
139.6687 89.5852 47.3151 1.0188 -48.4891 -110.9402
-166.2396 -207.0873 -208.9355 -230.7731 -183.3979 -60.1375
3.4947 60.7002 95.1507 137.8996 170.4504 119.5569
50.5159 20.7849 -11.5644 -35.9937 -60.8762 -69.9903
-84.4607 -81.8978 -71.7929 -53.2092 -28.5512 2.2491
27.4153 38.7118 34.2138 18.7218 -10.5655 -45.1692
-76.4129 -106.7507 -125.3935 -143.9676 -151.9734 -136.7083
-80.2460 -32.4913 -4.7275 7.0925 3.4105 3.0115
-18.7188 -53.4008 -83.8296 -113.8592 -138.5982 -139.2958
-117.3250 -85.7156 -45.9310 1.7614 39.8291 59.6710
65.6137 54.8856 38.7088 18.5827 -2.6872 -18.1357
-34.6288 -46.1432 -59.7233 -63.5167 -47.3406 -13.3925
17.0064 44.6386 48.5751 37.3169 14.1857 -18.0329
-39.8432 -54.8835 -69.9592 -75.1359 -62.4945 -38.3791
-16.6068 6.7099 18.7523 22.9044 9.8892 -16.1524
-39.2074 -71.8439 -103.9534 -133.8169 -158.8997 -188.6774
-179.9812 -131.7948 -87.4987 -37.0696 -7.3836 25.2862
60.2799 36.1222 -9.7351 -47.6884 -70.3327 -87.8315
-95.8307 -87.6939 -75.3982 -50.6649 -19.0084 -10.7700
-14.3252 -22.3495 -26.3139 -37.6233 -48.9481 -57.3999
-61.9771 -66.0515 -73.5272 -86.2984 -100.5334 -113.7096
-128.3434 -140.5063 -136.0503 -114.2930 -85.8730 -59.3099
-33.5031 1.8981 40.4811 73.9786 111.1026 151.5896
180.4743 210.2464 246.4506 283.2461 301.4182 294.6383
224.8205 153.3029 107.4917 50.1552 -2.6872 -49.7089
-80.6091 -94.3081 -95.4932 -58.5259 1.2034 70.4339
136.7032 169.1694 184.6473 207.8058 206.6336 159.1637
114.2030 78.0518 45.6467 24.1002 5.1315 -21.9499
-31.5131 -32.9083 -28.8738 -26.6221 -21.2733 -15.6295
-8.8703 1.1498 -1.1871 3.4920 3.7318 -1.2887
-11.7248 -26.1673 -49.0278 -72.1833 -89.0019 -100.4867
-105.0845 -104.5464 -86.5005 -49.3600 -22.8589 -5.2944
9.9650 30.1046 45.8125 53.0182 64.5473 81.4469
96.2947 111.8395 129.0046 142.9855 149.0672 147.7434
133.8876 116.4352 101.1416 85.4757 74.5689 65.5285
61.0794 60.5122 62.5154 54.5432 45.7019 34.3271
18.7577 -0.7809 -21.6193 -43.4218 -65.8989 -88.2305
-106.2465 -115.2749 -108.7803 -90.6972 -59.5407 -16.3955
30.3237 80.8872 128.5987 165.8900 183.4233 180.5924
159.6832 140.7101 128.1694 110.7522 81.5638 51.5537
24.2327 -5.9648 -32.1766 -58.0820 -77.5528 -87.5725
-86.5263 -75.7529 -65.0115 -57.4045 -59.1759 -62.7230
-70.0431 -78.7504 -77.0093 -73.4949 -66.0332 -53.8478
-44.5946 -43.3481 -45.4205 -47.5355 -46.0935 -39.5216
-29.6074 -17.1357 -4.3879 1.8072 2.8873 3.7432
0.9798 -6.2193 -13.4735 -19.8008 -28.1408 -38.2970
-41.8552 -43.9225 -39.6607 -15.1562 21.7573 49.7577
77.5856 107.3133 111.5676 119.7436 122.7493 79.7234
32.1512 3.3088 -9.8467 -9.7718 -7.4253 -14.9916
-33.7999 -53.1676 -71.3037 -92.7909 -116.8739 -136.2341
-143.1319 -139.2763 -116.8769 -74.8184 -39.8865 -10.2035
24.5436 73.2732 84.5173 88.5521 105.5446 78.1234
45.1134 21.9096 4.2531 -1.9881 -8.0225 -25.4575
-45.5227 -63.3082 -77.8016 -91.4425 -97.5072 -85.5877
-51.4150 -19.9825 4.0781 30.4574 61.5431 100.4991
128.2740 149.8214 162.4430 166.3687 150.9453 124.1409
91.0337 61.6049 37.1510 13.7033 -10.4844 -32.8697
-42.1768 -37.8072 -21.9107 2.1759 28.4680 53.1332
85.1153 102.9811 107.1610 121.6538 104.7702 60.9064
32.6417 8.7583 -10.0575 -27.3935 -42.0066 -51.1345
-55.9931 -61.1893 -58.8818 -54.0891 -49.0707 -39.3658
-31.5734 -26.0651 -29.0411 -28.0189 -26.1410 -24.2874
-20.6711 -14.3957 -8.6014 -5.5283 -6.9394 -15.5786
-21.6127 -31.0809 -40.4036 -49.0039 -54.5448 -57.2711
-54.6752 -40.9639 -26.0783 -13.9754 -3.4724 5.3770
11.8038 18.1218 24.3112 30.3582 31.7276 32.2366
34.0584 34.3160 35.6002 37.8849 39.5238 36.5742
26.9367 10.3118 -3.2215 -5.7705 7.0336 19.5032
25.7685 27.7141 24.7294 11.9621 -6.2220 -23.7931
-43.0660 -59.9410 -72.2067 -77.6673 -72.3917 -44.5329
-13.1887 3.9128 16.2580 27.4745 38.8008 47.9364
52.6566 51.2871 49.1593 45.7237 42.7603 43.6642
45.2228 40.1954 28.0714 15.7598 -2.7262 -19.7840
-35.7051 -45.7668 -49.4257 -38.3954 -14.6421 5.9994
15.6186 14.6773 7.1239 -1.4009 -10.5698 -20.3878
-32.9605 -46.2243 -59.3339 -70.8823 -78.9468 -67.8140
-38.3162 -11.1595 13.6580 30.5350 36.7763 32.1995
14.9507 -10.0341 -29.8284 -53.1607 -69.5354 -79.0410
-86.6019 -93.9448 -96.5227 -92.0346 -85.0966 -81.8428
-79.0356 -77.9656 -77.0474 -74.3997 -71.0553 -68.5796
-68.3056 -65.5224 -68.2772 -67.1383 -68.4975 -60.8553
-60.4641 -64.3311 -68.7787 -73.7698 -77.2174 -80.1763
-80.8100 -79.1282 -75.0412 -68.6693 -60.0528 -51.4888
-42.0786 -32.9411 -24.8792 -19.0724 -19.5062 -27.1081
-32.5277 -35.4830 -35.3184 -30.5047 -20.3755 -9.1818
2.2079 11.4057 15.9729 14.4368 9.0958 -3.5144
-21.9206 -37.2937 -48.4691 -55.8744 -57.8827 -47.8069
-29.2489 -13.2478 2.5251 15.8446 23.7116 24.4044
14.3799 -7.1793 -26.6201 -41.9503 -52.2887 -55.7923
-48.9595 -33.5550 -17.7407 -5.5430 3.8891 10.1903
14.4068 18.1035 21.2476 23.5293 23.8066 21.9884
17.3813 9.9553 3.4152 -0.8622 -2.2148 -0.8928
1.7981 5.0259 9.2451 14.3355 18.6056 21.0747
23.2490 26.0046 29.4066 32.8494 33.1042 31.5627
29.8344 27.7245 28.1139 30.9844 36.4372 44.5074
54.1513 65.2062 75.7790 84.2381 83.1055 74.6353
61.4885 44.3779 26.2472 8.0454 -7.7947 -20.8357
-28.2941 -30.1468 -27.7374 -22.3940 -16.0176 -9.4669
-0.2692 12.3401 27.1360 38.5480 44.5398 46.3709
49.9453 54.9970 59.4868 61.1036 61.6594 61.2556
59.3061 51.4829 41.3942 26.3584 15.8047 5.5257
-17.4245 -31.1364 -36.7853 -31.1700 -16.4007 0.7306
14.6406 24.7671 27.6064 27.8354 29.2618 31.9395
36.0625 47.7991 53.8790 50.0274 42.4326 33.9454
27.3252 22.1233 18.4218 15.1734 12.3500 9.0919
7.5315 7.4350 11.5205 19.0784 27.5947 35.8169
43.6156 49.6278 53.8308 55.0791 53.4165 49.3586
44.6855 38.7506 31.3267 22.9399 14.5714 6.5188
-0.2944 -4.3739 -5.8452 -7.0756 -9.0239 -11.4467
-12.9526 -12.1270 -9.3614 -6.4028 -4.2024 -1.5856
1.0507 2.4678 2.0199 0.3079 -1.9753 -5.3782
-10.1565 -8.0838 -1.9148 6.1102 12.7253 14.9500
10.5923 2.6432 -6.6811 -13.3453 -20.8732 -24.6023
-20.4898 -13.8193 -5.3128 1.7121 2.0160 -4.6290
-11.3931 -23.6600 -37.5356 -50.7991 -59.5178 -63.2831
-66.1160 -57.6147 -43.1192 -21.8319 3.0209 20.2017
30.5317 34.8876 30.7131 20.9379 11.5873 2.5583
-5.0577 -9.7767 -11.4510 -10.1757 -4.8002 -0.5295
1.4746 1.5202 -0.0030 -1.5682 -4.1647 -5.6393
-6.7932 -7.3970 -7.8856 -8.9927 -12.3560 -14.1394
-14.4908 -19.8702 -26.5062 -35.8532 -42.8682 -45.7192
-43.5829 -39.5277 -35.2042 -31.6973 -29.4543 -28.2306
-28.4803 -26.4100 -17.8373 -6.5929 7.1747 21.3663
33.9612 43.7049 47.9361 45.8543 41.9838 35.9287
29.8086 23.1150 16.0340 8.0420 -1.6728 -11.1947
-18.3499 -22.8965 -27.1484 -29.5191 -27.9692 -22.3362
-14.9201 -7.3340 -1.0640 4.2695 9.6273 15.8446
18.5585 16.3170 8.7873 1.2285 -4.1976 -10.1889
-13.3906 -13.5078 -12.9214 -13.4910 -17.2308 -20.6130
-24.5192 -25.7792 -24.9836 -23.0671 -19.8420 -16.0779
-12.2289 -6.4230 0.8915 8.1754 17.8948 28.1945
36.8563 44.5149 48.9760 46.5256 38.7458 25.8283
10.0611 -4.3017 -20.4766 -37.3441 -54.1438 -63.1818
-67.9538 -69.9881 -65.8855 -49.5964 -25.6833 -9.1942
1.9662 9.0103 14.0491 15.9684 16.0934 15.1284
16.6588 18.7267 20.1318 19.9324 17.1009 11.6322
4.7147 -2.0668 -8.7613 -15.2175 -20.9059 -28.4027
-36.2079 -44.3579 -53.6585 -62.0144 -64.9955 -64.2610
-53.7244 -31.7891 -10.5447 7.2446 23.5242 40.0358
53.3667 57.0564 47.4828 30.1758 12.9882 1.2108
-9.8244 -21.7055 -33.7734 -43.7679 -47.6016 -41.2509
-24.6862 -6.5099 10.1732 26.3856 38.6445 43.7177
37.0448 19.2915 1.1526 -11.4126 -15.3572 -10.4251
3.3138 21.4694 41.1048 60.3001 80.1492 91.7354
93.3003 83.6010 66.5479 47.6374 25.8805 7.9434
-8.2088 -14.7867 -8.1692 0.7974 5.9309 12.6587
17.4664 31.6489 42.7683 42.8963 45.2838 46.7639
47.4989 46.7360 45.9424 46.8118 47.7885 47.2819
44.5739 40.5436 37.5215 36.6853 39.1199 44.0922
50.1379 53.9782 53.8406 52.1321 48.3845 41.4310
33.4351 26.7300 20.9547 15.7989 11.0126 8.6371
9.6554 12.5822 14.8354 13.9427 9.9684 3.9760
-2.0524 -8.1489 -13.3774 -16.2818 -16.7635 -15.8935
-13.3079 -9.8343 -5.5440 -1.6885 1.8490 4.4383
5.2732 5.0114 3.2757 -1.1486 -6.8268 -12.4577
-17.0993 -19.5653 -20.0501 -19.1681 -17.0729 -14.2504
-10.5151 -5.4124 0.0305 5.0960 9.9816 15.0920
19.4431 22.7477 24.7736 25.6919 25.4449 23.5772
20.5284 18.0180 16.0619 14.9865 13.6192 11.4913
7.5713 2.4336 -3.8991 -9.5714 -13.3097 -14.9729
-14.2330 -11.0559 -7.0571 -4.8881 -4.4414 -7.9378
-12.2398 -20.6017 -30.1115 -43.5686 -50.9382 -58.5285
-62.1670 -62.1760 -55.0024 -48.0606 -36.5728 -22.1411
-13.7519 -2.8756 5.4062 14.3815 20.2052 22.4290
19.0801 13.6399 8.4215 3.2823 -0.1692 -0.3191
2.1856 5.7945 7.3513 8.0653 6.2337 2.5922
-3.5691 -10.0648 -16.9557 -22.5332 -27.8625 -33.9428
-40.1166 -45.3682 -49.7400 -53.5383 -56.4879 -57.7248
-56.0913 -50.3717 -44.0555 -38.9396 -35.5092 -33.3420
-33.4583 -35.5065 -38.4678 -40.5815 -41.3187 -41.0402
-39.1779 -35.9370 -31.4615 -25.6957 -18.6486 -11.2406
-4.2328 2.0879 5.9396 5.8085 2.0208 -3.7723
-9.5492 -15.5719 -21.1113 -24.4767 -24.8440 -23.1484
-20.3724 -17.5415 -14.5526 -12.4670 -11.5113 -12.8465
-17.7244 -26.9368 -39.1543 -53.3617 -67.3159 -80.3389
-91.9823 -101.5799 -107.9573 -104.4348 -88.4523 -71.7158
-57.4562 -42.4144 -29.7791 -19.8307 -12.0818 -6.6266
-4.0727 -2.0554 -0.8719 0.1621 0.3150 -0.5907
-3.6422 -9.9602 -17.6989 -26.2122 -34.8544 -43.4643
-50.9518 -54.0276 -50.1426 -41.8805 -27.5744 -12.9815
0.2805 13.9618 25.6933 34.6348 39.8370 42.0883
39.8352 35.7395 30.9768 27.2921 24.7043 24.3185
27.7217 33.6937 40.4638 47.0813 52.9850 57.5969
58.9042 59.3689 59.8267 58.9420 56.6897 53.9323
51.2867 49.1519 47.9716 46.4598 42.9796 37.5700
32.1016 29.9191 30.7058 35.2691 42.3222 48.8248
54.7006 60.7066 63.9970 62.6234 58.8299 53.9928
49.0752 43.9077 37.4776 29.7485 22.4877 16.8314
12.6529 9.4842 7.9409 7.1180 6.6707 7.2055
9.8023 15.3834 23.8314 33.8337 44.2795 55.0415
64.9425 72.8770 77.4457 76.8584 70.7518 58.4737
44.1482 33.7051 27.9684 27.0861 30.3193 36.7015
44.3349 50.1520 53.4286 54.2572 52.8959 48.8548
43.6433 38.9843 36.2320 34.9294 34.1470 33.6913
33.0627 31.6435 29.0896 24.7325 17.6402 9.2800
0.9547 -6.3895 -10.7394 -12.4119 -11.8318 -9.6104
-7.4933 -6.7204 -8.1219 -10.7127 -11.9490 -9.9812
-5.3052 2.6626 11.1996 17.8650 22.0464 24.6866
25.7128 25.9098 26.0600 25.0272 23.9216 22.8858
24.1377 25.7970 27.7034 28.4421 27.2792 23.5052
19.3358 16.0939 13.2078 11.1975 9.8412 9.5861
10.1251 10.5772 11.0197 10.4129 8.7038 5.3088
0.9739 -4.0290 -8.3453 -12.9068 -17.4027 -21.8636
-26.3292 -29.6796 -31.8761 -32.5614 -32.2164 -31.2687
-30.1985 -29.0377 -28.2160 -26.7519 -24.7010 -22.4116
-20.2588 -18.1246 -16.2627 -14.6531 -14.2535 -14.8093
-16.9132 -20.0013 -24.2247 -27.9621 -30.3679 -31.0499
-28.2352 -21.9841 -14.7032 -7.6501 -1.8486 3.7061
9.1784 12.7971 13.1386 10.0984 3.3203 -4.1966
-13.6740 -18.4046 -20.5223 -17.4234 -8.4125 -0.4906
3.8530 4.3755 5.2671 5.4931 3.5070 0.9190
-4.2790 -10.4384 -16.0453 -23.0822 -28.7158 -32.1708
-34.6348 -33.5786 -28.4082 -21.2676 -15.2794 -9.5097
-2.9902 2.7249 5.4535 2.6835 -5.5963 -14.6048
-23.6386 -31.8560 -39.4955 -44.8712 -46.5462 -46.2500
-40.8829 -32.6136 -22.1250 -13.8152 -4.1462 3.1077
9.2953 13.3670 14.7652 11.1369 7.3746 4.4322
2.3825 1.6921 1.9424 2.9899 4.5413 3.8940
1.8225 -1.5576 -5.9989 -10.4459 -15.1049 -19.4395
-21.8627 -21.8510 -18.9607 -12.6568 -5.8370 1.2724
6.7177 8.4547 6.8263 3.0444 -3.9822 -10.3611
-15.2686 -17.0850 -15.6550 -12.8127 -10.1294 -8.2581
-7.4933 -8.5492 -11.3495 -14.8387 -18.7629 -22.3849
-25.1363 -25.8570 -22.9641 -16.2207 -8.6079 -1.0491
5.6196 10.6827 13.3970 12.8337 9.2410 3.4653
-1.2437 -4.5632 -6.6087 -7.1279 -7.1528 -6.1932
-4.2308 -0.8741 3.7543 9.3145 14.3194 17.8326
19.3708 17.8452 13.7369 6.6047 -0.6480 -7.0347
-11.7170 -14.9163 -16.2732 -14.9475 -11.8978 -7.9301
-4.6025 -2.5274 -2.2693 -3.1617 -5.1169 -8.1885
-11.7254 -15.0036 -17.3851 -19.7801 -22.4473 -26.1736
-30.5496 -35.1912 -39.8043 -44.5673 -49.1588 -53.4709
-57.5420 -61.0115 -64.1361 -62.0643 -56.3408 -48.0976
-42.3558 -40.6026 -42.7410 -47.3859 -52.9844 -58.4780
-62.9853 -65.8536 -65.1248 -61.3889 -55.4888 -47.2690
-38.7233 -29.8247 -20.0409 -10.8369 -3.6084 0.4432
-0.0422 -5.5975 -12.8460 -18.8259 -22.8430 -24.1576
-22.2054 -17.0140 -9.9213 -2.9852 3.6536 9.9815
16.0366 21.8386 26.9389 31.2453 34.3949 36.1543
37.4671 38.1380 38.4626 39.3065 40.2805 41.2213
42.6641 43.7919 44.3244 43.3803 40.5665 35.7787
30.6613 26.0371 22.7661 21.1590 21.5766 23.9539
27.8169 32.2262 36.0934 38.8299 39.8722 39.3320
37.8760 35.9268 34.3823 33.2943 32.7211 32.0574
31.0124 30.9632 31.8805 33.9002 36.2916 39.1282
41.5100 42.7007 41.9635 37.4224 30.1085 23.2896
17.9567 14.2228 11.7484 9.7167 7.4884 4.8137
1.8806 -1.2227 -3.6921 -4.8651 -4.1013 -1.9126
0.8605 2.8903 3.5283 3.1514 3.4512 4.1632
5.3147 6.3969 6.3091 3.9758 -0.4340 -5.8466
-11.6805 -17.4745 -21.7752 -24.3572 -24.6354 -22.7576
-18.9740 -13.3824 -6.7391 1.7184 7.2333 12.1192
15.5452 18.7931 22.0715 23.5420 24.4476 23.0144
19.8144 15.1663 9.9859 4.4981 -0.0050 -4.1235
-7.6873 -10.9964 -14.0965 -15.8622 -16.0115 -13.7127
-9.7379 -5.9390 -2.1398 1.3497 2.8256 3.6326
3.9174 3.7327 3.6757 2.6388 0.9129 -0.7443
-2.1260 -2.8440 -2.6575 -1.6185 0.1248 1.8560
3.2968 4.3542 4.7199 4.3772 3.8949 2.6607
0.4926 -1.6610 -3.9829 -6.2115 -7.8624 -8.6365
-8.9099 -8.9243 -8.7633 -8.7903 -8.7819 -8.9501
-9.3092 -9.0259 -8.1592 -6.8908 -5.3784 -4.4047
-3.8666 -3.9139 -4.2206 -4.1996 -3.5005 -1.7807
0.9162 4.6689 9.0308 12.9862 15.6624 17.0111
17.0150 16.1621 14.5903 12.2379 9.7356 7.5457
5.8768 4.4965 3.3927 2.7695 2.4535 2.1414
1.4609 0.2363 -1.5331 -2.9483 -3.4232 -2.6291
-0.3930 2.8918 6.5321 9.6055 11.7825 13.1403
14.2285 14.9657 14.8221 14.2495 13.1355 11.6168
9.9395 7.7858 5.1947 2.3477 -0.3858 -2.6303
-4.1928 -4.4200 -2.6360 0.2884 2.6798 3.7405
3.6886 2.6945 1.4402 0.3103 -0.2806 0.2258
2.2116 4.7088 6.7806 7.9060 8.6489 9.2850
9.7863 10.3514 11.1158 12.1366 13.5294 14.9810
15.8575 15.6228 13.9875 10.6140 6.4005 1.5943
-2.8452 -6.9322 -9.9786 -14.2680 -16.3410 -14.2863
-11.2644 -7.0497 -2.5140 1.2385 3.0540 3.0956
1.5649 -0.9530 -2.9301 -3.5021 -3.2544 -2.1695
-0.2533 2.5602 5.9571 9.3453 13.0827 15.9666
17.3636 17.4599 15.5820 11.9174 8.6648 4.8299
0.5474 -1.3817 -2.5416 -3.0719 -4.1919 -5.5826
-7.4407 -9.0937 -10.9985 -12.6030 -13.2481 -13.0221
-12.1920 -11.1994 -10.3156 -9.3461 -8.3466 -7.0875
-6.5062 -6.4193 -7.2068 -9.4273 -12.4357 -15.9687
-19.2990 -22.2099 -23.6834 -23.5230 -21.4557 -18.4698
-15.7669 -14.4140 -14.4614 -16.2607 -19.5817 -24.2949
-29.1710 -33.8557 -37.3266 -39.5007 -40.7577 -39.5085
-35.0552 -28.9104 -23.4636 -18.6901 -14.9860 -13.1918
-12.9208 -13.0011 -13.2322 -12.9756 -11.7030 -9.4429
-6.6681 -4.2018 -2.1692 -0.9794 -0.7827 -0.9077
-0.3657 0.3879 0.7960 0.4239 -0.5912 -1.6500
-2.3977 -3.0044 -3.6694 -4.4047 -4.9500 -5.2247
-5.6521 -6.4700 -7.7884 -9.3530 -11.1259 -12.5607
-13.4847 -13.7356 -13.2268 -12.3698 -11.1793 -9.3704
-6.8135 -3.7692 -0.9521 1.1221 2.1855 2.3261
2.1429 1.8923 1.7028 1.0079 -0.4395 -2.6996
-5.9969 -8.7789 -12.1740 -14.3822 -15.8464 -15.8095
-14.3037 -10.8648 -7.1193 -4.0120 -2.0068 -1.4755
-1.9870 -3.8498 -6.1000 -9.1333 -11.7849 -13.7422
-14.3825 -14.0947 -12.9924 -11.7996 -10.6577 -9.7197
-9.2685 -9.1336 -9.7928 -11.4191 -13.9152 -16.9388
-19.8959 -22.1452 -22.4417 -20.0509 -14.7234 -8.9432
-4.1137 -0.2326 2.5731 3.6994 3.1319 0.7069
-2.1099 -4.3631 -5.4984 -5.2490 -3.7278 -1.6093
0.4242 2.1144 2.7188 2.8678 2.7859 3.9973
6.7509 10.6091 14.9171 19.3809 23.4693 26.4696
27.8279 27.4970 25.9450 23.5158 20.0233 15.6428
11.0339 6.4049 2.1093 -1.5739 -4.0126 -5.0424
-4.6413 -2.9865 -1.1296 0.6958 2.2730 3.1930
3.8097 4.2450 5.1791 5.6902 7.2398 9.0802
10.8510 12.0682 12.3967 12.7400 13.1054 13.4409
13.7350 15.0373 17.5929 21.2644 25.2977 29.1797
32.2471 34.4379 35.8418 36.4240 36.0163 34.2571
31.7938 29.5154 27.6816 26.5415 25.7744 25.1430
24.6472 24.2973 23.4346 21.6457 18.9902 15.7139
11.1259 7.2620 4.6829 4.2752 6.4601 10.6622
15.4629 19.9903 23.4954 25.3106 25.1667 23.4768
21.2620 19.3773 17.9479 16.6027 15.5667 15.1758
16.1423 18.0720 20.3186 22.4201 24.2491 25.6089
25.6767 24.9919 24.6082 24.6406 24.9587 25.0519
24.6580 23.6819 22.3442 20.9271 19.4033 18.2653
17.9113 18.3199 19.1908 20.0748 20.4978 19.8482
18.1562 16.3674 14.7578 13.2184 12.3149 12.1530
12.5523 13.4130 14.0632 14.3130 13.8900 12.6399
10.8025 8.9942 7.7737 7.6106 8.5786 10.6906
13.4885 16.5242 19.5202 22.6125 25.1442 27.2970
28.5573 26.7966 25.3430 24.5959 24.0302 23.5371
22.8068 21.9836 21.2740 20.5671 19.3254 17.9002
16.0379 13.2232 9.7283 6.7191 4.8451 5.1521
7.3339 10.7302 14.7309 17.6987 19.1236 19.1392
17.8591 14.9923 11.1562 7.1816 4.0264 2.0499
1.1370 1.6970 3.0527 4.4632 5.5973 5.9984
5.9057 5.3919 4.5102 3.7263 3.3914 3.5776
3.8093 3.6747 3.4151 2.9678 2.3467 1.8083
1.3589 0.9898 0.4313 -0.4305 -1.6519 -3.4443
-6.2539 -10.0759 -14.9291 -20.5486 -26.5608 -32.2945
-36.8510 -39.7082 -40.2586 -38.7165 -35.2528 -29.8623
-25.0571 -21.7192 -19.5317 -19.2751 -20.7533 -23.2590
-26.4730 -29.7679 -32.7316 -35.4722 -37.7644 -39.5271
-40.4607 -40.7326 -40.4277 -39.7616 -39.3464 -39.0259
-38.6449 -37.6214 -36.2421 -35.1161 -34.5093 -34.4578
-34.7761 -35.2354 -35.7388 -36.4582 -37.3681 -38.2737
-38.8107 -38.8823 -38.4272 -37.1510 -35.2438 -32.8200
-30.3876 -28.2714 -26.6340 -25.3638 -24.0588 -22.1722
-19.4568 -16.0845 -12.1975 -8.1369 -4.4765 -1.9951
-1.0085 -2.2988 -7.4617 -13.9425 -19.4073 -23.9272
-27.0662 -28.5751 -28.3619 -27.0719 -25.3023 -23.5381
-22.0167 -20.1160 -17.8050 -16.8363 -17.1991 -18.3731
-20.1343 -22.2805 -24.2354 -26.0134 -27.2167 -28.1470
-29.0218 -29.6684 -30.1205 -30.3501 -29.9109 -28.8365
-27.5699 -26.6795 -26.5758 -27.2869 -28.2228 -28.7343
-28.2672 -26.9703 -24.9696 -23.3009 -21.6866 -20.0318
-17.8095 -15.7241 -15.9652 -16.7509 -17.9875 -19.3084
-20.0740 -19.7698 -18.4237 -16.1142 -13.6640 -11.7217
-10.5555 -10.0450 -10.0834 -10.7849 -11.6261 -12.2224
-12.0581 -11.0520 -9.6277 -7.4438 -4.9379 -2.5492
-0.5247 0.9254 2.0571 3.2889 4.8424 6.8138
9.4543 12.5532 16.0208 19.2504 21.6091 23.1269
23.6366 23.5325 23.2243 22.5489 21.6969 20.7487
20.1180 20.4309 21.5638 23.2924 25.1595 26.6014
27.2226 26.7300 25.7800 25.2368 25.1882 25.9209
27.6912 30.5787 33.9945 37.1587 40.4986 43.9701
47.4141 49.6310 50.9327 51.8365 52.3267 52.5302
52.4493 51.8287 50.9905 49.5848 47.9666 46.2620
44.9741 44.5376 43.9800 44.8434 44.8623 44.3596
43.0561 40.3931 37.0822 33.4264 29.9093 26.4045
22.9249 19.6602 17.3560 15.9159 15.8715 17.1908
19.4141 21.5905 23.2834 25.3702 25.0899 24.5704
22.9761 20.9487 19.2309 17.4361 15.1727 11.3918
7.6948 3.2793 -0.1539 -2.9629 -5.0536 -6.2842
-5.8189 -4.0724 -0.1869 4.7119 9.2378 11.6655
12.6104 11.4355 8.7600 5.3415 2.0921 -0.7855
-2.6802 -3.7888 -3.6617 -4.2115 -4.9076 -6.1208
-7.2016 -8.7997 -8.6597 -8.5950 -5.5707 -1.6010
1.6080 5.3070 7.2232 9.9282 10.3353 8.8568
5.6476 2.8539 1.3774 1.2452 2.5835 6.9690
11.9011 16.9981 20.9630 23.4246 22.9383 20.6222
17.8695 15.3390 11.8789 8.9293 6.0628 3.6843
0.6666 -1.6226 -4.3686 -6.3058 -7.5304 -8.1708
-9.2662 -10.1320 -10.7471 -10.7735 -11.7847 -10.4689
-10.5175 -9.8541 -8.8060 -9.1244 -7.4102 -6.8253
-5.6703 -6.1403 -6.5876 -8.8135 -10.2405 -12.1924
-11.7916 -10.4330 -7.8938 -4.0499 0.3578 3.8099
6.7592 9.2000 10.6813 10.4720 10.1674 7.6028
5.7540 4.2164 3.2622 1.7320 0.1516 -0.7463
-1.4652 -1.8552 -3.1701 -3.8853 -4.6753 -5.5764
-6.5013 -6.3991 -5.4808 -5.2889 -6.1080 -8.3740
-11.0313 -14.0172 -16.3418 -18.5401 -19.4107 -18.4106
-16.1418 -12.6754 -9.4728 -7.2334 -6.9372 -7.4723
-9.0603 -10.3278 -11.6705 -12.4826 -13.4746 -13.5169
-15.6331 -17.2579 -21.1608 -23.1148 -25.5296 -23.4308
-22.6079 -17.4525 -16.8223 -10.5805 -10.4027 -8.3048
-4.5946 -4.6579 -4.4418 -6.0480 -7.9825 -13.1919
-15.4817 -16.4794 -18.4280 -19.2020 -18.3276 -19.1463
-17.6500 -18.8726 -20.6506 -22.9497 -26.3474 -27.4225
-29.3531 -28.7002 -28.2475 -26.2170 -23.0945 -22.2005
-20.0010 -21.7145 -20.7124 -24.8653 -21.7514 -25.4829
-25.2301 -24.4648 -22.5279 -21.4115 -22.4733 -22.4577
-23.2009 -23.7492 -22.7137 -23.7294 -22.3099 -20.1074
-16.2641 -14.0187 -11.3623 -9.1649 -8.4226 -7.1809
-6.8311 -6.5795 -6.1589 -4.9013 -5.8987 -6.0109
-8.3111 -9.8031 -12.3387 -13.2168 -14.1752 -15.0908
-15.7110 -16.4986 -16.6952 -16.2078 -15.3489 -13.2963
-11.6675 -10.0313 -9.2042 -8.8768 -9.9731 -10.6566
-11.5473 -11.2106 -9.9947 -7.4837 -3.5664 0.2208
4.7425 7.6561 9.6659 10.2654 7.6177 4.0656
-0.2622 -3.6539 -5.5804 -4.7886 -2.4356 1.6130
3.6225 5.6005 7.1809 9.0375 9.5990 8.3957
5.7000 5.2992 3.2166 1.6148 0.8902 1.3231
3.1533 3.9252 2.6545 3.1356 3.6348 4.5176
4.7359 4.4697 5.1343 6.1356 7.5032 8.4535
10.5463 11.8843 16.8193 18.8528 23.4530 27.4219
31.5820 36.7599 40.8046 43.5642 45.1524 43.4679
40.5603 35.5605 31.7784 29.5525 29.1531 28.8533
28.3497 27.5340 27.0855 26.5663 26.1526 25.7557
25.3980 23.0627 21.4229 19.6160 15.9404 12.6757
8.2272 3.9735 0.7706 -1.4577 -3.7421 -4.7218
-4.7904 -5.0246 -5.1445 -4.2212 -1.9545 -0.1048
1.8675 3.9936 6.1445 7.3980 7.9292 8.9425
9.2287 9.7231 9.5693 8.2784 5.2023 2.0003
-1.6940 -5.3091 -7.9703 -9.7030 -10.2696 -9.6089
-6.9954 -3.2343 -0.2964 1.5686 2.2266 2.1445
2.1262 1.8138 2.1274 2.9407 3.6110 3.9705
4.5068 5.2551 6.5858 8.5123 10.3778 11.3236
11.3746 10.7214 9.6326 9.3157 9.5282 10.4800
11.7694 12.4026 11.6375 9.3349 6.0897 2.8835
0.2253 -1.7120 -2.8185 -2.7453 -2.1041 -1.0617
-0.3329 0.1803 0.4144 0.1065 -0.9460 -3.0790
-5.7438 -8.5920 -11.2239 -13.3191 -15.1430 -16.4713
-17.2706 -17.4333 -16.8254 -14.8810 -12.8634 -10.0853
-7.0919 -5.4170 -4.3810 -4.0041 -3.8932 -4.5800
-5.3697 -6.6497 -8.8891 -11.9206 -15.0396 -17.8078
-20.0361 -21.2232 -21.3519 -19.4935 -16.7732 -14.0880
-12.0303 -10.4184 -9.6131 -9.5610 -10.2577 -11.1705
-12.1032 -12.9180 -13.4438 -13.4258 -12.5834 -10.5239
-7.2619 -3.5919 0.2139 3.3157 5.7206 7.5463
8.9607 10.1772 11.1521 11.6525 11.8596 11.6489
10.8365 9.5975 8.2649 6.7882 4.9772 2.6535
0.1026 -1.7926 -2.5634 -2.9903 -2.2372 -0.5743
1.6459 3.5160 4.2400 3.7492 2.0036 -0.7931
-3.8776 -6.7987 -8.8577 -9.4333 -8.4308 -5.5034
-1.1790 3.0711 6.6161 8.9259 10.4941 11.3275
11.1404 10.2975 9.2362 8.2697 7.7496 7.7499
8.9643 11.5703 14.7622 17.8988 20.8070 22.8333
23.7069 23.3558 21.6995 19.0695 16.5708 13.8643
11.2079 8.5182 7.0744 7.1788 6.1436 5.0806
3.6410 2.1900 0.1584 -1.1331 -1.4533 -0.2002
2.8448 6.6691 9.9494 13.0732 15.1405 15.3554
13.5225 9.8496 5.4889 0.8656 -3.0841 -6.5487
-9.1869 -10.2538 -9.3023 -6.8030 -3.6375 -0.5557
1.6141 2.0923 1.0655 -0.7752 -2.8452 -4.4817
-5.4635 -5.7069 -5.9627 -6.8968 -8.4956 -10.1917
-11.9296 -13.2148 -13.9786 -14.0665 -13.2238 -11.7722
-9.8068 -7.2793 -4.5492 -1.7390 1.0724 3.7513
6.2500 8.3746 10.1358 11.2900 11.6297 10.8320
9.2047 7.1155 4.7265 2.3759 0.3445 -1.2078
-2.2753 -2.5055 -1.7081 -0.1693 1.8174 4.3794
7.2672 9.6223 10.7516 10.8685 9.8292 8.1090
6.6119 5.6990 5.0817 4.7169 3.9075 2.6127
1.1393 0.1026 -0.6040 -0.0929 -0.0089 -0.0689
1.9175 2.8163 3.5822 3.9593 4.1746 4.3928
4.7196 4.9783 5.3450 5.6163 5.5857 5.0925
4.2259 3.0051 1.5329 0.2918 -0.9068 -1.9764
-2.8815 -3.5746 -3.7515 -3.4858 -2.8023 -1.8412
-1.0636 -0.7725 -0.9050 -1.4086 -2.2792 -3.2514
-4.1313 -4.9278 -5.6467 -6.2694 -6.9346 -7.1903
-7.5252 -7.4442 -6.7178 -5.4288 -2.7511 0.8622
4.3871 7.2165 9.0965 9.7455 8.4798 5.5770
1.6690 -2.0064 -5.2123 -8.1196 -10.0338 -10.8501
-9.8359 -7.1522 -4.3028 -2.4087 -1.3589 -1.3244
-2.3476 -3.7287 -4.6235 -4.9203 -4.6277 -3.8630
-2.9010 -2.0112 -1.4551 -1.3814 -1.8496 -2.6755
-3.5854 -4.5894 -5.5877 -6.0988 -5.9294 -4.6026
-2.6132 -0.5665 0.5235 0.4560 -1.0642 -3.5056
-5.9621 -8.4890 -10.6564 -12.2879 -13.3437 -13.5116
-12.3577 -9.5322 -5.5604 -1.1694 3.0270 6.5057
8.8857 9.6238 9.0140 7.8071 5.0404 1.6153
-1.4074 -4.0806 -6.2958 -8.1967 -9.4045 -10.1435
-10.6624 -11.1046 -11.2365 -10.8132 -9.6033 -7.7416
-5.4123 -3.3033 -1.4572 -0.5600 -0.4577 -0.5087
-0.6847 -0.7671 -0.9536 -1.1685 -1.5624 -2.2313
-3.0449 -4.1127 -5.8737 -8.0753 -10.3573 -11.8223
-12.1758 -11.0471 -8.9108 -6.6744 -4.8019 -3.8453
-3.8501 -4.4515 -5.2147 -5.6902 -5.3350 -4.8304
-3.6211 -2.3635 -1.7297 -2.1344 -3.5332 -6.1144
-8.1203 -9.1398 -9.2951 -8.6005 -7.1538 -5.3592
-3.7137 -2.4621 -1.6722 -1.1125 -0.6451 -0.2395
-0.0135 0.4704 0.0894 -0.4074 -0.6058 -0.6949
-0.1289 1.2960 2.9062 4.1464 5.2736 5.3506
3.3963 0.3658 -3.1849 -5.5841 -7.8745 -10.6688
-11.5555 -10.2467 -8.3520 -5.4867 -1.7270 1.1416
4.7678 8.3047 10.5780 11.7999 12.7235 12.6594
11.4252 9.5110 7.5399 5.7634 5.0406 5.5146
7.0012 9.0698 12.0721 15.7580 19.6792 23.2700
26.8150 29.9475 32.4492 34.0090 33.8150 32.4582
29.6423 26.4672 23.2925 20.9248 19.3920 18.2729
17.1175 16.4127 15.0918 14.0636 13.0905 13.1369
11.3433 10.7494 9.3255 7.5258 6.9551 5.5284
5.3872 5.1294 6.6280 8.8839 11.6638 13.3129
15.5190 16.1849 16.0143 15.4441 12.9229 10.5072
8.1500 6.9745 7.1394 6.1243 6.3633 7.1418
9.4670 11.1245 12.6171 13.9811 12.6879 11.1188
8.5556 7.0912 5.5733 4.9414 5.0817 5.0103
5.0529 6.0914 7.3115 8.3107 8.4315 7.5132
6.1450 4.4039 2.8732 0.8901 -0.4053 -0.7821
0.0989 1.8719 3.5249 5.0634 6.3171 6.7983
6.5980 6.4499 6.5962 7.7561 10.0482 12.6870
14.9389 16.5014 17.1337 16.8702 15.6896 13.7401
11.0687 8.0268 5.0307 2.5500 0.5426 -0.8751
-1.5076 -1.4965 -1.1551 -1.0636 -1.4788 -2.7251
-4.6647 -7.0564 -9.3036 -11.5376 -13.3066 -14.4047
-14.9512 -14.8370 -14.1520 -12.4240 -9.8189 -6.1621
-1.8479 2.7301 6.9661 10.3312 12.3893 12.8506
11.6047 9.1204 6.5722 3.8049 0.8406 -1.6719
-3.7674 -4.8718 -4.4755 -1.8461 2.1192 5.7775
8.8901 11.2117 12.6606 13.4727 13.6774 13.5941
13.0257 11.8478 9.8165 6.9170 3.3141 -0.3415
-3.2578 -4.9992 -5.2031 -4.4758 -3.6313 -3.1870
-2.9811 -3.0908 -2.8234 -1.9651 -0.3187 2.0670
4.9204 7.7471 10.3702 12.5044 13.5032 13.1207
10.8277 7.2809 3.4652 -0.1802 -3.1568 -5.1749
-5.7025 -4.3580 -1.2543 2.8054 6.2133 8.1781
8.6890 7.6991 5.2456 2.7280 0.8697 -0.3133
-0.7351 -1.0316 -1.4360 -2.1402 -3.0770 -3.9773
-4.5142 -4.8302 -5.3005 -6.3735 -7.9450 -9.8195
-11.4156 -12.5844 -13.2979 -13.5755 -13.6430 -13.8711
-14.3091 -14.8538 -15.4063 -15.8110 -15.9894 -15.9924
-15.9459 -15.8365 -15.5265 -15.0055 -14.4863 -14.3223
-14.7288 -15.8980 -17.7222 -19.8276 -21.9150 -23.6193
-24.1160 -23.3135 -21.6233 -19.5770 -17.6388 -15.6537
-13.8088 -12.4630 -12.0622 -12.5865 -14.0198 -16.1378
-18.3322 -20.3339 -21.9018 -22.9040 -23.5698 -23.9095
-24.0324 -23.8822 -23.8123 -23.8099 -23.9389 -23.6831
-22.8965 -21.3724 -18.8572 -15.7964 -12.6732 -9.7332
-7.3592 -5.7164 -4.6989 -4.1701 -3.6364 -2.9197
-1.7883 -0.3574 1.1976 2.4336 2.9861 2.4858
1.0216 -0.8406 -2.4955 -3.4857 -3.9530 -3.9656
-4.1374 -4.8428 -6.6901 -9.3234 -11.9123 -13.3006
-13.0278 -9.9757 -4.9930 0.2311 5.5055 10.0164
13.6225 16.2277 18.0465 18.1619 17.1007 14.6376
11.1163 7.1412 2.7874 -1.6854 -5.3734 -7.8164
-8.8156 -8.4327 -6.9968 -5.1576 -3.6083 -2.1855
-1.1776 -0.2869 0.4616 0.8298 0.8924 0.9548
1.0342 0.7548 -0.4030 -2.7920 -5.7032 -8.7664
-11.5271 -13.4595 -14.4605 -14.3187 -12.9202 -10.6910
-8.6825 -7.0180 -5.5908 -4.3982 -3.3070 -2.3594
-1.6051 -1.0274 -0.6368 -0.2768 0.4020 1.1283
1.4638 1.0081 0.0368 -1.3488 -2.8091 -4.2393
-5.5842 -6.6397 -7.4374 -8.2828 -9.4745 -11.0109
-13.0731 -15.4516 -17.7870 -19.6840 -20.4994 -19.7913
-17.4284 -14.2297 -11.4582 -8.9607 -6.8148 -4.9942
-3.8553 -3.5151 -3.6697 -4.2213 -4.7990 -5.0931
-4.8551 -3.9554 -2.4952 -0.4899 1.2210 2.4036
2.9076 2.0586 -0.1047 -3.0936 -5.5056 -7.0390
-7.7861 -7.4039 -5.7826 -3.1973 -1.4246 -0.8545
-1.2226 -2.3885 -4.0382 -5.3273 -6.0390 -6.0965
-4.7466 -2.0620 0.8390 3.4217 5.4542 7.1483
8.0924 8.2803 7.6010 5.9399 3.9535 1.7507
0.0410 -1.1246 -1.0625 0.4805 2.9801 6.4618
9.5964 12.3883 14.1726 14.7689 14.5983 13.2954
11.7288 10.1120 8.5462 7.3063 6.8800 7.5626
9.0921 10.7335 11.7410 12.0115 11.3288 10.1654
8.9338 8.2123 8.2563 9.1173 10.5914 12.8413
15.2911 17.5992 20.1803 21.9970 23.4225 23.8935
23.4414 22.2357 20.7397 19.0975 17.7146 16.6929
16.2249 16.3092 16.6584 16.9948 17.0269 16.5307
15.4920 14.1576 12.8517 11.8097 11.1855 11.0213
10.8360 10.5542 9.9243 8.8466 7.3210 5.3706
3.5302 2.4432 2.1638 2.5523 3.1977 3.9154
4.5603 4.9419 5.2420 5.6991 6.2445 6.7745
7.3084 7.5950 7.5293 7.1714 6.9690 7.0302
7.3839 8.1016 8.7480 8.9072 8.6290 7.8399
6.5388 4.9164 3.0763 1.2665 -0.5835 -2.4859
-4.4102 -6.0351 -6.9377 -6.7039 -5.0371 -2.1277
1.1643 4.2311 6.3581 7.3609 6.2525 2.4641
-1.9118 -5.9550 -9.1724 -11.2834 -12.6679 -13.5252
-13.7986 -13.7957 -13.6598 -13.2240 -12.5569 -11.7274
-10.7225 -9.5708 -8.3584 -7.1875 -5.9284 -4.4597
-3.0369 -1.8507 -1.0775 -0.6680 -0.3470 0.1273
0.9106 1.8784 3.0011 4.1903 4.8657 4.7977
3.9148 2.2888 0.1996 -1.8048 -3.4566 -4.7244
-5.2167 -4.6747 -2.8289 0.0958 3.3902 6.7007
9.7208 12.1817 14.0599 15.3660 16.1662 16.5990
16.7229 16.4075 15.3984 13.5154 11.1390 8.5888
6.4312 5.0192 4.3522 4.4106 4.8321 5.2500
5.2785 4.5303 3.5362 2.6785 2.2030 2.3979
3.0115 3.9379 5.0192 6.1746 7.4103 8.7662
9.9387 10.5829 10.6213 9.8850 8.1421 5.7198
2.9462 0.2718 -2.0057 -3.4803 -4.1105 -4.1288
-3.8137 -3.1161 -2.1424 -0.6620 1.0515 2.4033
3.2487 3.2837 2.5211 1.1637 -0.3146 -1.4139
-1.9406 -1.9002 -1.2760 -0.3164 0.4559 1.1010
1.9647 2.8164 3.4306 3.3395 2.2962 0.3395
-1.8828 -3.9150 -5.5597 -6.5597 -6.9210 -7.1821
-7.6399 -8.2448 -8.8849 -9.4851 -9.9437 -10.4663
-10.7771 -10.9900 -11.4963 -12.0743 -12.7569 -13.3355
-13.6890 -13.7717 -13.5571 -13.2429 -12.7485 -12.0473
-11.3866 -10.9573 -10.7957 -10.9402 -11.5491 -12.5848
-13.7141 -14.8326 -15.5263 -15.3807 -14.3053 -12.7392
-10.6806 -8.8069 -7.6102 -6.7885 -6.6734 -7.1150
-8.2338 -9.8532 -11.2445 -12.5117 -13.8416 -14.6126
-14.8150 -14.6651 -14.5074 -14.5847 -14.6498 -14.4025
-13.6356 -12.4332 -10.9753 -9.6967 -8.8744 -8.7398
-9.4446 -10.9846 -12.7803 -14.4405 -15.6757 -16.2117
-15.9419 -15.0593 -13.8083 -12.4383 -11.1018 -9.8610
-8.6559 -7.5619 -6.8811 -6.9318 -7.8488 -8.9221
-9.7318 -9.7729 -9.0522 -7.6078 -5.7833 -3.9486
-2.3313 -1.1183 -0.1998 0.3719 0.6402 0.8530
0.9673 0.8000 0.5392 0.4456 0.3128 0.1869
0.0124 -0.2142 -0.3896 -0.5230 -0.3944 -0.2706
-0.2049 -0.3860 -0.8003 -1.3132 -1.6688 -1.4991
-0.7166 0.7547 2.5408 4.3974 5.9884 6.8997
7.0238 6.3047 5.1826 